* Measurement data measured by REW V5.20
* Source: ASIO MOTU M Series, In 1
* Format: 256k Log Swept Sine, 1 sweep at -12.0 dBFS with no timing reference
* Dated: 2022/08/23 19:28:08
* REW Settings:
*  C-weighting compensation: Off
*  Target level: 75.0 dB
* Note: 
* Measurement: 7Hz ZERO LC1
* Smoothing: 1/12 octave
* Frequency Step: 1/24 octave
* Start Frequency: 20.000 Hz
*
* Freq(Hz)	SPL(dB)	Phase(degrees)
20.000000	100.656	-155.8848
20.600000	100.678	-157.2917
21.200001	100.700	-158.6556
21.799999	100.717	-159.9930
22.400000	100.725	-161.2934
23.000000	100.724	-162.5198
23.600000	100.719	-163.6362
24.299999	100.724	-164.8612
25.000000	100.734	-166.1542
25.799999	100.716	-167.6968
26.500000	100.671	-168.8711
27.200001	100.633	-169.8295
28.000000	100.613	-170.8908
29.000000	100.585	-172.3234
30.000000	100.537	-173.6718
30.700001	100.506	-174.5468
31.500000	100.472	-175.5274
32.500000	100.426	-176.7483
33.500000	100.368	-177.9085
34.500000	100.309	-178.9742
35.500000	100.248	179.9929
36.500000	100.177	179.0460
37.500000	100.110	178.2082
38.700001	100.037	177.2540
40.000000	99.956	176.2628
41.200001	99.883	175.4267
42.500000	99.804	174.5174
43.700001	99.718	173.6878
45.000000	99.616	172.8666
46.200001	99.523	172.1383
47.500000	99.429	171.3777
48.700001	99.346	170.5958
50.000000	99.234	169.9017
51.500000	99.146	169.3365
53.000000	99.068	168.6864
54.500000	98.985	168.1212
56.000000	98.903	167.5434
58.000000	98.773	166.7440
60.000000	98.625	166.1122
61.500000	98.526	165.7495
63.000000	98.430	165.3940
65.000000	98.302	164.9805
67.000000	98.178	164.5452
69.000000	98.051	164.0875
71.000000	97.923	163.7014
73.000000	97.801	163.4045
75.000000	97.682	163.1599
77.500000	97.530	162.8443
80.000000	97.382	162.5713
82.500000	97.248	162.3930
85.000000	97.103	162.3058
87.500000	96.939	162.2134
90.000000	96.757	162.0170
92.500000	96.603	162.0826
95.000000	96.500	162.3021
97.500000	96.385	162.5962
100.000000	96.251	162.9316
103.000000	96.083	163.4436
106.000000	95.937	164.2404
109.000000	95.821	165.2007
112.000000	95.769	166.1668
115.000000	95.791	167.0473
118.000000	95.862	167.7106
122.000000	95.957	168.0079
125.000000	96.001	167.8077
128.000000	96.016	167.3643
132.000000	95.991	166.7543
136.000000	95.922	166.2991
140.000000	95.828	166.0230
145.000000	95.699	165.8951
150.000000	95.581	165.8877
155.000000	95.466	166.0497
160.000000	95.359	166.2379
165.000000	95.261	166.4594
170.000000	95.168	166.7176
175.000000	95.081	167.0026
180.000000	95.000	167.3123
185.000000	94.927	167.6416
190.000000	94.859	167.9643
195.000000	94.800	168.2695
200.000000	94.745	168.5522
206.000000	94.676	168.8884
212.000000	94.606	169.2445
218.000000	94.543	169.6021
224.000000	94.481	169.9538
230.000000	94.420	170.3256
236.000000	94.363	170.7158
243.000000	94.306	171.1854
250.000000	94.255	171.6487
258.000000	94.196	172.1315
265.000000	94.150	172.5462
272.000000	94.108	172.9639
280.000000	94.059	173.4266
290.000000	94.003	173.9840
300.000000	93.948	174.5460
307.000000	93.910	174.9503
315.000000	93.869	175.4171
325.000000	93.823	176.0006
335.000000	93.782	176.5838
345.000000	93.745	177.1743
355.000000	93.710	177.7531
365.000000	93.678	178.3129
375.000000	93.650	178.8748
387.000000	93.621	179.5425
400.000000	93.593	-179.7514
412.000000	93.571	-179.1061
425.000000	93.551	-178.4204
437.000000	93.534	-177.8012
450.000000	93.519	-177.1417
462.000000	93.507	-176.5387
475.000000	93.496	-175.8971
487.000000	93.488	-175.3120
500.000000	93.479	-174.6831
515.000000	93.471	-173.9710
530.000000	93.465	-173.2619
545.000000	93.461	-172.5541
560.000000	93.458	-171.8486
580.000000	93.456	-170.9039
600.000000	93.458	-169.9532
615.000000	93.461	-169.2336
630.000000	93.468	-168.5069
650.000000	93.480	-167.5265
670.000000	93.495	-166.5470
690.000000	93.517	-165.5540
710.000000	93.544	-164.5462
730.000000	93.577	-163.5307
750.000000	93.618	-162.5089
775.000000	93.680	-161.2166
800.000000	93.755	-159.9215
825.000000	93.844	-158.6375
850.000000	93.950	-157.3730
875.000000	94.074	-156.1459
900.000000	94.220	-154.9917
925.000000	94.393	-153.9911
950.000000	94.582	-153.3865
975.000000	94.690	-153.3300
1000.000000	94.652	-152.5150
1030.000000	94.801	-150.2669
1060.000000	95.096	-148.9637
1090.000000	95.362	-148.2365
1120.000000	95.608	-147.7162
1150.000000	95.840	-147.3443
1180.000000	96.060	-147.0879
1220.000000	96.332	-146.8879
1250.000000	96.522	-146.8160
1280.000000	96.700	-146.7926
1320.000000	96.921	-146.8064
1360.000000	97.128	-146.8478
1400.000000	97.321	-146.8994
1450.000000	97.549	-146.9629
1500.000000	97.768	-147.0246
1550.000000	97.980	-147.0834
1600.000000	98.189	-147.1491
1650.000000	98.396	-147.2259
1700.000000	98.603	-147.3210
1750.000000	98.809	-147.4398
1800.000000	99.017	-147.5900
1850.000000	99.225	-147.7773
1900.000000	99.436	-148.0075
1950.000000	99.649	-148.2904
2000.000000	99.863	-148.6381
2060.000000	100.120	-149.1491
2120.000000	100.374	-149.7570
2180.000000	100.627	-150.4656
2240.000000	100.877	-151.2900
2300.000000	101.122	-152.2458
2360.000000	101.358	-153.3301
2430.000000	101.617	-154.7458
2500.000000	101.855	-156.3106
2580.000000	102.099	-158.2532
2650.000000	102.284	-160.0556
2720.000000	102.443	-161.9220
2800.000000	102.594	-164.1056
2900.000000	102.741	-166.8902
3000.000000	102.839	-169.7296
3070.000000	102.876	-171.7321
3150.000000	102.885	-173.9962
3250.000000	102.847	-176.7139
3350.000000	102.765	-179.2433
3450.000000	102.649	178.4332
3550.000000	102.508	176.3158
3650.000000	102.346	174.4097
3750.000000	102.169	172.7183
3870.000000	101.944	170.9577
4000.000000	101.697	169.3474
4120.000000	101.469	168.0984
4250.000000	101.225	166.9661
4370.000000	101.006	166.0981
4500.000000	100.776	165.3295
4620.000000	100.570	164.7678
4750.000000	100.355	164.3144
4870.000000	100.167	164.0368
5000.000000	99.979	163.8818
5150.000000	99.786	163.8702
5300.000000	99.623	164.0064
5450.000000	99.494	164.2597
5600.000000	99.406	164.6194
5800.000000	99.375	165.1990
6000.000000	99.463	165.5242
6150.000000	99.585	165.4680
6300.000000	99.763	165.1779
6500.000000	100.119	164.0338
6700.000000	100.542	161.3684
6900.000000	100.942	157.0173
7100.000000	101.239	150.7756
7300.000000	101.315	142.6408
7500.000000	101.059	132.9370
7750.000000	100.101	119.6564
8000.000000	98.238	108.1247
8250.000000	95.576	102.8636
8500.000000	92.675	105.0634
8750.000000	90.063	112.6733
9000.000000	87.945	124.0085
9250.000000	86.466	138.3981
9500.000000	85.983	154.3058
9750.000000	86.629	167.7655
10000.000000	87.706	175.0123
10300.000000	88.506	176.8807
10600.000000	88.585	177.5453
10900.000000	88.369	-179.5287
11200.000000	88.241	-174.5317
11500.000000	88.378	-168.5157
11800.000000	88.850	-162.3596
12200.000000	90.075	-155.2508
12500.000000	91.471	-151.9190
12800.000000	93.209	-151.8590
13200.000000	95.539	-160.2693
13600.000000	96.796	-179.8779
14000.000000	96.255	157.5087
14500.000000	93.841	138.9197
15000.000000	90.991	129.6553
15500.000000	88.142	124.9896
16000.000000	85.200	124.6237
16500.000000	82.291	128.9528
17000.000000	79.694	136.9601
17500.000000	77.575	146.9419
18000.000000	75.959	157.8560
18500.000000	74.883	168.1890
19000.000000	74.223	177.3164
19500.000000	74.245	-176.8508
20000.000000	74.319	179.1508
20600.000000	72.604	167.5580
21200.000000	68.511	169.3026
21800.000000	63.756	-176.0530
