* Measurement data measured by REW V5.20
* Source: ASIO MOTU M Series, In 1
* Format: 256k Log Swept Sine, 1 sweep at -12.0 dBFS with no timing reference
* Dated: 2022/08/29 15:01:31
* REW Settings:
*  C-weighting compensation: Off
*  Target level: 75.0 dB
* Note: 
* Measurement: JH16v2 1 RC1
* Smoothing: 1/12 octave
* Frequency Step: 1/24 octave
* Start Frequency: 20.000 Hz
*
* Freq(Hz)	SPL(dB)	Phase(degrees)
20.000000	92.291	44.6370
20.600000	92.422	44.0840
21.200001	92.545	43.4743
21.799999	92.653	42.8996
22.400000	92.755	42.4146
23.000000	92.860	41.9935
23.600000	92.967	41.5988
24.299999	93.094	41.1558
25.000000	93.224	40.6911
25.799999	93.369	40.0509
26.500000	93.474	39.4208
27.200001	93.559	38.8470
28.000000	93.653	38.3177
29.000000	93.781	37.6942
30.000000	93.912	37.0689
30.700001	94.006	36.6288
31.500000	94.109	36.1079
32.500000	94.229	35.5541
33.500000	94.361	35.0341
34.500000	94.479	34.3894
35.500000	94.569	33.7690
36.500000	94.652	33.2352
37.500000	94.739	32.6759
38.700001	94.840	31.9423
40.000000	94.956	31.1071
41.200001	95.044	30.2933
42.500000	95.132	29.7526
43.700001	95.244	29.3359
45.000000	95.354	28.7763
46.200001	95.437	28.2617
47.500000	95.520	27.6122
48.700001	95.571	26.9110
50.000000	95.622	26.3458
51.500000	95.726	25.7592
53.000000	95.845	25.1727
54.500000	95.967	24.6177
56.000000	96.075	24.0075
58.000000	96.142	23.0242
60.000000	96.165	22.3495
61.500000	96.214	21.8772
63.000000	96.278	21.3036
65.000000	96.355	20.5065
67.000000	96.417	19.7764
69.000000	96.469	19.0649
71.000000	96.514	18.3614
73.000000	96.562	17.7029
75.000000	96.603	17.0934
77.500000	96.645	16.3778
80.000000	96.685	15.6104
82.500000	96.727	14.8679
85.000000	96.760	14.2253
87.500000	96.759	13.6049
90.000000	96.752	13.0914
92.500000	96.807	12.4443
95.000000	96.849	11.6531
97.500000	96.869	11.0295
100.000000	96.878	10.4731
103.000000	96.893	9.8546
106.000000	96.906	9.2650
109.000000	96.910	8.6913
112.000000	96.914	8.1306
115.000000	96.914	7.5858
118.000000	96.906	7.0547
122.000000	96.889	6.3736
125.000000	96.877	5.9355
128.000000	96.866	5.5327
132.000000	96.844	5.0052
136.000000	96.816	4.5160
140.000000	96.783	4.1105
145.000000	96.738	3.7524
150.000000	96.704	3.5929
155.000000	96.682	3.5215
160.000000	96.685	3.6122
165.000000	96.746	3.7700
170.000000	96.858	3.6985
175.000000	96.987	3.1239
180.000000	97.087	2.1774
185.000000	97.127	1.1021
190.000000	97.124	0.0414
195.000000	97.094	-0.8596
200.000000	97.040	-1.6548
206.000000	96.973	-2.4980
212.000000	96.906	-3.1703
218.000000	96.837	-3.7436
224.000000	96.768	-4.2415
230.000000	96.704	-4.6818
236.000000	96.639	-5.0868
243.000000	96.565	-5.4806
250.000000	96.502	-5.8512
258.000000	96.433	-6.2676
265.000000	96.367	-6.6102
272.000000	96.302	-6.9228
280.000000	96.227	-7.2326
290.000000	96.134	-7.5734
300.000000	96.044	-7.8590
307.000000	95.980	-8.0366
315.000000	95.909	-8.2300
325.000000	95.822	-8.4401
335.000000	95.737	-8.6309
345.000000	95.651	-8.8112
355.000000	95.566	-8.9420
365.000000	95.482	-9.0280
375.000000	95.397	-9.0991
387.000000	95.298	-9.1543
400.000000	95.191	-9.1803
412.000000	95.094	-9.1628
425.000000	94.990	-9.1078
437.000000	94.896	-9.0273
450.000000	94.796	-8.9072
462.000000	94.707	-8.7766
475.000000	94.613	-8.6012
487.000000	94.528	-8.4161
500.000000	94.439	-8.1982
515.000000	94.338	-7.9310
530.000000	94.238	-7.6320
545.000000	94.140	-7.2933
560.000000	94.042	-6.9249
580.000000	93.915	-6.3737
600.000000	93.795	-5.7463
615.000000	93.711	-5.2211
630.000000	93.634	-4.6599
650.000000	93.544	-3.8861
670.000000	93.463	-3.1248
690.000000	93.387	-2.3668
710.000000	93.315	-1.5782
730.000000	93.247	-0.7456
750.000000	93.187	0.1285
775.000000	93.126	1.2858
800.000000	93.083	2.4816
825.000000	93.059	3.7034
850.000000	93.057	4.9221
875.000000	93.075	6.1122
900.000000	93.114	7.2465
925.000000	93.171	8.2951
950.000000	93.244	9.2311
975.000000	93.325	10.0310
1000.000000	93.410	10.6918
1030.000000	93.507	11.3217
1060.000000	93.593	11.8204
1090.000000	93.663	12.2510
1120.000000	93.724	12.6623
1150.000000	93.780	13.0724
1180.000000	93.834	13.4712
1220.000000	93.905	13.9642
1250.000000	93.956	14.2961
1280.000000	94.004	14.5969
1320.000000	94.059	14.9673
1360.000000	94.105	15.3295
1400.000000	94.145	15.7104
1450.000000	94.189	16.2251
1500.000000	94.231	16.8006
1550.000000	94.278	17.4251
1600.000000	94.333	18.0955
1650.000000	94.402	18.7856
1700.000000	94.483	19.4821
1750.000000	94.580	20.1554
1800.000000	94.693	20.7878
1850.000000	94.821	21.3601
1900.000000	94.966	21.8470
1950.000000	95.125	22.2248
2000.000000	95.297	22.4684
2060.000000	95.516	22.5580
2120.000000	95.744	22.4003
2180.000000	95.973	21.9722
2240.000000	96.194	21.2578
2300.000000	96.398	20.2625
2360.000000	96.576	19.0131
2430.000000	96.737	17.3031
2500.000000	96.841	15.4294
2580.000000	96.889	13.2609
2650.000000	96.879	11.4815
2720.000000	96.839	9.8947
2800.000000	96.785	8.3225
2900.000000	96.740	6.5509
3000.000000	96.736	4.6467
3070.000000	96.747	3.0481
3150.000000	96.750	0.8469
3250.000000	96.699	-2.5112
3350.000000	96.534	-6.4604
3450.000000	96.200	-10.6936
3550.000000	95.669	-14.6295
3650.000000	94.971	-17.6293
3750.000000	94.180	-19.3357
3870.000000	93.224	-19.7021
4000.000000	92.278	-18.4340
4120.000000	91.534	-16.1358
4250.000000	90.888	-12.7629
4370.000000	90.447	-9.0472
4500.000000	90.149	-4.5603
4620.000000	90.050	-0.1498
4750.000000	90.148	4.7203
4870.000000	90.440	9.0808
5000.000000	90.984	13.3431
5150.000000	91.895	17.0989
5300.000000	93.040	18.7936
5450.000000	94.239	17.5879
5600.000000	95.224	13.2659
5800.000000	95.811	4.8584
6000.000000	95.570	-1.5676
6150.000000	95.158	-3.0359
6300.000000	94.835	-1.7313
6500.000000	94.838	3.0662
6700.000000	95.599	9.8046
6900.000000	97.411	16.2137
7100.000000	100.002	17.5242
7300.000000	102.444	10.6555
7500.000000	104.297	-2.3723
7750.000000	105.732	-23.7028
8000.000000	106.135	-49.7740
8250.000000	104.861	-77.0849
8500.000000	101.813	-93.7234
8750.000000	98.152	-96.4836
9000.000000	95.131	-91.5800
9250.000000	93.205	-84.8555
9500.000000	92.125	-79.9835
9750.000000	91.316	-78.6353
10000.000000	90.211	-79.5318
10300.000000	88.197	-78.6329
10600.000000	85.779	-71.9104
10900.000000	83.604	-60.0715
11200.000000	82.138	-45.9606
11500.000000	81.491	-32.6533
11800.000000	81.395	-22.8893
12200.000000	81.168	-17.0200
12500.000000	80.302	-14.8032
12800.000000	78.785	-9.4390
13200.000000	76.484	5.5140
13600.000000	74.819	27.2303
14000.000000	74.668	53.4477
14500.000000	77.511	81.2618
15000.000000	80.640	89.5332
15500.000000	82.806	87.5070
16000.000000	85.223	79.7796
16500.000000	86.013	54.7410
17000.000000	83.473	36.2203
17500.000000	80.351	31.2994
18000.000000	77.499	28.3157
18500.000000	74.085	34.3153
19000.000000	71.360	45.7439
19500.000000	69.808	52.4416
20000.000000	68.021	55.5208
20600.000000	64.936	67.0548
21200.000000	62.593	84.8970
21800.000000	61.501	97.1657
