* Measurement data measured by REW V5.20
* Source: ASIO MOTU M Series, In 1
* Format: 256k Log Swept Sine, 1 sweep at -12.0 dBFS with no timing reference
* Dated: 2022/12/05 16:02:33
* REW Settings:
*  C-weighting compensation: Off
*  Target level: 75.0 dB
* Note: 
* Measurement: Lily LC1
* Smoothing: 1/12 octave
* Frequency Step: 1/24 octave
* Start Frequency: 20.000 Hz
*
* Freq(Hz)	SPL(dB)	Phase(degrees)
20.000000	97.911	-156.3048
20.600000	97.974	-156.9604
21.200001	98.035	-157.5771
21.799999	98.095	-158.1840
22.400000	98.149	-158.7850
23.000000	98.198	-159.3597
23.600000	98.243	-159.8940
24.299999	98.297	-160.4865
25.000000	98.351	-161.0818
25.799999	98.405	-161.7619
26.500000	98.447	-162.3277
27.200001	98.487	-162.8707
28.000000	98.528	-163.4688
29.000000	98.577	-164.1394
30.000000	98.634	-164.7996
30.700001	98.670	-165.3006
31.500000	98.702	-165.8493
32.500000	98.741	-166.4650
33.500000	98.779	-167.0786
34.500000	98.810	-167.6853
35.500000	98.837	-168.2636
36.500000	98.859	-168.8262
37.500000	98.879	-169.3496
38.700001	98.904	-169.9913
40.000000	98.916	-170.6238
41.200001	98.942	-171.0791
42.500000	98.979	-171.6576
43.700001	99.003	-172.2020
45.000000	99.019	-172.7537
46.200001	99.031	-173.2231
47.500000	99.041	-173.7354
48.700001	99.045	-174.2065
50.000000	99.045	-174.6474
51.500000	99.060	-175.1156
53.000000	99.077	-175.6419
54.500000	99.088	-176.1675
56.000000	99.098	-176.6564
58.000000	99.116	-177.2681
60.000000	99.134	-177.9364
61.500000	99.127	-178.4101
63.000000	99.116	-178.7862
65.000000	99.108	-179.2825
67.000000	99.104	-179.8161
69.000000	99.101	179.6655
71.000000	99.096	179.2686
73.000000	99.098	178.8470
75.000000	99.087	178.3261
77.500000	99.072	177.7040
80.000000	99.070	177.1707
82.500000	99.045	176.6937
85.000000	99.012	176.2032
87.500000	99.007	175.6110
90.000000	99.024	174.9190
92.500000	98.988	174.5117
95.000000	98.956	174.3596
97.500000	98.936	174.0444
100.000000	98.915	173.5984
103.000000	98.872	173.0539
106.000000	98.820	172.5334
109.000000	98.783	172.0620
112.000000	98.756	171.6648
115.000000	98.728	171.3087
118.000000	98.699	170.9453
122.000000	98.655	170.4503
125.000000	98.625	170.1057
128.000000	98.599	169.7663
132.000000	98.559	169.2816
136.000000	98.517	168.7302
140.000000	98.477	168.2008
145.000000	98.415	167.6448
150.000000	98.348	167.1167
155.000000	98.278	166.6152
160.000000	98.208	166.1596
165.000000	98.138	165.7810
170.000000	98.075	165.4480
175.000000	98.020	165.1597
180.000000	97.980	164.8537
185.000000	97.946	164.4633
190.000000	97.905	163.9665
195.000000	97.850	163.4386
200.000000	97.782	162.9368
206.000000	97.694	162.4016
212.000000	97.601	161.9338
218.000000	97.509	161.5305
224.000000	97.417	161.1740
230.000000	97.328	160.8552
236.000000	97.242	160.5649
243.000000	97.144	160.2364
250.000000	97.047	159.9090
258.000000	96.937	159.5460
265.000000	96.838	159.2471
272.000000	96.738	158.9764
280.000000	96.624	158.7064
290.000000	96.482	158.4156
300.000000	96.342	158.1675
307.000000	96.244	158.0153
315.000000	96.134	157.8627
325.000000	95.997	157.7047
335.000000	95.863	157.5809
345.000000	95.730	157.4904
355.000000	95.598	157.4297
365.000000	95.468	157.3981
375.000000	95.340	157.4032
387.000000	95.188	157.4587
400.000000	95.030	157.5814
412.000000	94.894	157.7238
425.000000	94.756	157.8523
437.000000	94.626	157.9519
450.000000	94.481	158.0863
462.000000	94.347	158.2523
475.000000	94.204	158.4819
487.000000	94.075	158.7297
500.000000	93.937	159.0282
515.000000	93.782	159.4113
530.000000	93.630	159.8297
545.000000	93.481	160.2861
560.000000	93.336	160.7797
580.000000	93.149	161.5033
600.000000	92.968	162.3035
615.000000	92.839	162.9484
630.000000	92.715	163.6286
650.000000	92.558	164.5866
670.000000	92.409	165.6024
690.000000	92.271	166.6713
710.000000	92.143	167.7966
730.000000	92.026	168.9760
750.000000	91.922	170.2037
775.000000	91.809	171.8009
800.000000	91.719	173.4604
825.000000	91.654	175.1613
850.000000	91.614	176.8863
875.000000	91.602	178.6093
900.000000	91.617	-179.6966
925.000000	91.659	-178.0605
950.000000	91.727	-176.5156
975.000000	91.816	-175.0890
1000.000000	91.923	-173.8014
1030.000000	92.068	-172.4629
1060.000000	92.222	-171.3565
1090.000000	92.378	-170.4659
1120.000000	92.526	-169.7678
1150.000000	92.662	-169.2305
1180.000000	92.782	-168.8106
1220.000000	92.916	-168.3571
1250.000000	92.999	-168.0453
1280.000000	93.069	-167.7217
1320.000000	93.153	-167.2426
1360.000000	93.236	-166.7142
1400.000000	93.323	-166.1815
1450.000000	93.428	-165.5569
1500.000000	93.515	-164.9221
1550.000000	93.589	-164.1857
1600.000000	93.664	-163.3246
1650.000000	93.750	-162.3616
1700.000000	93.852	-161.3257
1750.000000	93.973	-160.2469
1800.000000	94.115	-159.1486
1850.000000	94.279	-158.0555
1900.000000	94.465	-156.9843
1950.000000	94.673	-155.9507
2000.000000	94.903	-154.9719
2060.000000	95.211	-153.8920
2120.000000	95.552	-152.9436
2180.000000	95.927	-152.1624
2240.000000	96.337	-151.5888
2300.000000	96.780	-151.2704
2360.000000	97.254	-151.2557
2430.000000	97.840	-151.6986
2500.000000	98.454	-152.7345
2580.000000	99.169	-154.7762
2650.000000	99.779	-157.4175
2720.000000	100.340	-160.9185
2800.000000	100.874	-165.9681
2900.000000	101.288	-173.5881
3000.000000	101.335	178.1795
3070.000000	101.150	172.6913
3150.000000	100.760	167.1749
3250.000000	100.096	161.7619
3350.000000	99.341	158.0432
3450.000000	98.583	155.8146
3550.000000	97.876	154.7552
3650.000000	97.245	154.5401
3750.000000	96.696	154.9352
3870.000000	96.147	156.0068
4000.000000	95.691	157.6649
4120.000000	95.401	159.4378
4250.000000	95.226	161.3987
4370.000000	95.189	163.0494
4500.000000	95.272	164.4461
4620.000000	95.450	165.1680
4750.000000	95.727	165.0841
4870.000000	96.022	163.9814
5000.000000	96.318	161.4978
5150.000000	96.521	156.9856
5300.000000	96.455	151.2072
5450.000000	96.052	145.1840
5600.000000	95.332	140.0553
5800.000000	94.047	135.8399
6000.000000	92.643	134.8268
6150.000000	91.631	135.8055
6300.000000	90.700	137.9598
6500.000000	89.628	142.3099
6700.000000	88.792	147.9598
6900.000000	88.234	154.4838
7100.000000	87.984	161.4506
7300.000000	88.068	168.4326
7500.000000	88.513	174.9812
7750.000000	89.645	-178.3128
8000.000000	91.576	-174.6212
8250.000000	94.803	-176.0697
8500.000000	97.221	162.0367
8750.000000	96.064	130.8090
9000.000000	92.966	115.7255
9250.000000	89.693	113.2405
9500.000000	87.061	116.4824
9750.000000	85.176	121.8076
10000.000000	83.896	127.3619
10300.000000	82.909	132.5739
10600.000000	82.078	135.3323
10900.000000	81.052	138.6590
11200.000000	80.369	142.2996
11500.000000	79.757	142.5317
11800.000000	78.697	142.0065
12200.000000	76.740	144.7032
12500.000000	75.180	149.9862
12800.000000	73.761	157.5353
13200.000000	72.280	169.9318
13600.000000	71.385	-176.1940
14000.000000	71.173	-161.8121
14500.000000	72.193	-144.8457
15000.000000	75.059	-133.8941
15500.000000	78.420	-142.0391
16000.000000	78.839	-172.5083
16500.000000	75.645	170.0310
17000.000000	71.797	172.8651
17500.000000	69.559	179.8484
18000.000000	68.414	-178.3724
18500.000000	66.613	-174.1348
19000.000000	65.896	-160.0736
19500.000000	66.447	-161.4752
20000.000000	65.609	-168.9773
20600.000000	63.993	-173.9477
21200.000000	62.039	-177.3350
21800.000000	59.820	-173.7347
