* Measurement data measured by REW V5.20
* Source: ASIO MOTU M Series, In 1
* Format: 256k Log Swept Sine, 1 sweep at -12.0 dBFS with no timing reference
* Dated: 2022/09/17 18:47:41
* REW Settings:
*  C-weighting compensation: Off
*  Target level: 75.0 dB
* Note: 
* Measurement: CA Solaris LC1
* Smoothing: 1/12 octave
* Frequency Step: 1/24 octave
* Start Frequency: 20.000 Hz
*
* Freq(Hz)	SPL(dB)	Phase(degrees)
20.000000	99.857	15.1056
20.600000	99.898	14.5085
21.200001	99.936	13.9202
21.799999	99.973	13.3517
22.400000	100.009	12.7750
23.000000	100.038	12.1680
23.600000	100.054	11.5662
24.299999	100.057	10.9423
25.000000	100.059	10.4184
25.799999	100.071	9.8525
26.500000	100.084	9.3020
27.200001	100.086	8.7204
28.000000	100.079	8.1324
29.000000	100.082	7.5139
30.000000	100.094	6.9142
30.700001	100.109	6.5450
31.500000	100.140	6.1195
32.500000	100.182	5.4438
33.500000	100.201	4.7181
34.500000	100.203	4.0315
35.500000	100.191	3.4101
36.500000	100.180	2.8804
37.500000	100.176	2.2920
38.700001	100.156	1.5514
40.000000	100.124	0.8317
41.200001	100.094	0.3604
42.500000	100.099	-0.0731
43.700001	100.105	-0.6106
45.000000	100.092	-1.1760
46.200001	100.067	-1.6509
47.500000	100.032	-2.1036
48.700001	99.997	-2.4948
50.000000	99.969	-2.8754
51.500000	99.953	-3.4249
53.000000	99.930	-3.9963
54.500000	99.911	-4.5025
56.000000	99.892	-5.0028
58.000000	99.839	-5.5832
60.000000	99.790	-6.0174
61.500000	99.760	-6.3795
63.000000	99.729	-6.7750
65.000000	99.681	-7.2848
67.000000	99.632	-7.7281
69.000000	99.585	-8.1401
71.000000	99.540	-8.5325
73.000000	99.496	-8.9018
75.000000	99.453	-9.2695
77.500000	99.390	-9.7275
80.000000	99.328	-10.1475
82.500000	99.268	-10.5085
85.000000	99.205	-10.8404
87.500000	99.133	-11.2504
90.000000	99.055	-11.6571
92.500000	99.003	-11.8999
95.000000	98.964	-12.1369
97.500000	98.911	-12.3414
100.000000	98.852	-12.5668
103.000000	98.774	-12.8764
106.000000	98.698	-13.1406
109.000000	98.622	-13.3523
112.000000	98.543	-13.5187
115.000000	98.464	-13.6650
118.000000	98.383	-13.7638
122.000000	98.277	-13.6889
125.000000	98.209	-13.5161
128.000000	98.167	-13.2706
132.000000	98.172	-13.0075
136.000000	98.206	-13.1692
140.000000	98.201	-13.6765
145.000000	98.129	-14.3102
150.000000	98.025	-14.7836
155.000000	97.925	-15.0657
160.000000	97.827	-15.2562
165.000000	97.733	-15.3883
170.000000	97.643	-15.4947
175.000000	97.553	-15.5572
180.000000	97.463	-15.5839
185.000000	97.372	-15.5237
190.000000	97.281	-15.3501
195.000000	97.216	-15.1144
200.000000	97.186	-14.8956
206.000000	97.184	-14.8532
212.000000	97.158	-15.0987
218.000000	97.100	-15.3869
224.000000	97.023	-15.5723
230.000000	96.940	-15.6814
236.000000	96.859	-15.7428
243.000000	96.769	-15.7600
250.000000	96.684	-15.7299
258.000000	96.592	-15.6794
265.000000	96.515	-15.6460
272.000000	96.440	-15.6208
280.000000	96.353	-15.5858
290.000000	96.243	-15.5250
300.000000	96.134	-15.4300
307.000000	96.058	-15.3447
315.000000	95.972	-15.2306
325.000000	95.868	-15.0701
335.000000	95.766	-14.8935
345.000000	95.665	-14.6994
355.000000	95.567	-14.4902
365.000000	95.471	-14.2676
375.000000	95.377	-14.0327
387.000000	95.266	-13.7323
400.000000	95.146	-13.3819
412.000000	95.038	-13.0449
425.000000	94.923	-12.6592
437.000000	94.818	-12.2831
450.000000	94.705	-11.8554
462.000000	94.602	-11.4413
475.000000	94.491	-10.9701
487.000000	94.388	-10.5159
500.000000	94.273	-9.9952
515.000000	94.131	-9.3214
530.000000	93.974	-8.4043
545.000000	93.854	-6.8802
560.000000	93.931	-5.4352
580.000000	93.969	-5.7923
600.000000	93.761	-5.6312
615.000000	93.606	-4.9899
630.000000	93.468	-4.1354
650.000000	93.317	-2.7899
670.000000	93.207	-1.3904
690.000000	93.119	-0.0423
710.000000	93.040	1.2692
730.000000	92.966	2.5831
750.000000	92.898	3.9280
775.000000	92.824	5.6629
800.000000	92.762	7.4522
825.000000	92.715	9.3006
850.000000	92.685	11.1993
875.000000	92.672	13.1421
900.000000	92.678	15.1238
925.000000	92.702	17.1474
950.000000	92.746	19.2088
975.000000	92.811	21.3041
1000.000000	92.898	23.4392
1030.000000	93.038	26.0556
1060.000000	93.225	28.7217
1090.000000	93.472	31.3936
1120.000000	93.790	33.9712
1150.000000	94.181	36.2990
1180.000000	94.636	38.2030
1220.000000	95.300	39.8598
1250.000000	95.800	40.3976
1280.000000	96.273	40.4062
1320.000000	96.837	39.8153
1360.000000	97.315	38.8263
1400.000000	97.719	37.7072
1450.000000	98.156	36.4104
1500.000000	98.600	35.3420
1550.000000	99.106	33.8399
1600.000000	99.565	31.4517
1650.000000	99.924	28.6799
1700.000000	100.214	25.8145
1750.000000	100.461	22.8327
1800.000000	100.668	19.6388
1850.000000	100.826	16.1429
1900.000000	100.911	12.3094
1950.000000	100.894	8.2009
2000.000000	100.750	4.0231
2060.000000	100.399	-0.5953
2120.000000	99.906	-4.2262
2180.000000	99.377	-6.8566
2240.000000	98.838	-8.9828
2300.000000	98.237	-10.4570
2360.000000	97.621	-10.8626
2430.000000	96.995	-10.3947
2500.000000	96.454	-9.5580
2580.000000	95.876	-7.9775
2650.000000	95.446	-5.8565
2720.000000	95.139	-3.2631
2800.000000	94.956	-0.1221
2900.000000	94.980	3.6216
3000.000000	95.289	6.3834
3070.000000	95.627	7.1464
3150.000000	96.032	6.4243
3250.000000	96.361	3.1219
3350.000000	96.256	-1.5520
3450.000000	95.673	-4.8913
3550.000000	94.889	-4.9707
3650.000000	94.283	-2.2150
3750.000000	94.055	1.6776
3870.000000	94.226	5.9117
4000.000000	94.754	8.9165
4120.000000	95.429	10.0328
4250.000000	96.307	9.1691
4370.000000	97.143	5.6891
4500.000000	97.768	-1.4140
4620.000000	97.823	-9.4747
4750.000000	97.330	-16.8640
4870.000000	96.586	-21.0691
5000.000000	95.692	-22.8075
5150.000000	94.754	-21.8794
5300.000000	94.076	-18.7595
5450.000000	93.726	-14.2736
5600.000000	93.723	-9.0508
5800.000000	94.262	-1.7986
6000.000000	95.433	4.7698
6150.000000	96.737	8.4907
6300.000000	98.396	10.2825
6500.000000	100.927	7.3349
6700.000000	103.045	-4.8877
6900.000000	103.743	-24.2396
7100.000000	102.857	-40.4039
7300.000000	101.241	-47.4073
7500.000000	99.796	-47.4519
7750.000000	98.744	-42.8630
8000.000000	98.541	-36.4756
8250.000000	99.148	-30.3778
8500.000000	100.559	-26.8810
8750.000000	102.477	-29.8601
9000.000000	103.925	-43.6061
9250.000000	103.747	-64.5006
9500.000000	101.796	-79.8373
9750.000000	98.982	-84.1886
10000.000000	96.242	-80.7818
10300.000000	93.655	-71.4522
10600.000000	91.963	-59.8786
10900.000000	91.055	-48.5397
11200.000000	90.721	-38.9800
11500.000000	90.759	-32.5145
11800.000000	90.879	-30.7135
12200.000000	90.265	-36.0805
12500.000000	88.619	-40.4003
12800.000000	86.016	-38.5818
13200.000000	81.784	-23.4066
13600.000000	77.636	8.4614
14000.000000	77.216	56.9156
14500.000000	82.556	96.2055
15000.000000	84.640	93.9857
15500.000000	85.336	98.5625
16000.000000	87.837	103.9158
16500.000000	90.001	90.6596
17000.000000	89.900	64.4594
17500.000000	87.942	37.0738
18000.000000	84.032	16.7118
18500.000000	78.089	17.8806
19000.000000	71.353	35.8109
19500.000000	65.234	60.2500
20000.000000	60.497	86.0414
20600.000000	56.407	113.0844
21200.000000	53.226	104.2867
21800.000000	50.656	-30.0954
