* Measurement data measured by REW V5.20
* Source: ASIO MOTU M Series, In 1
* Format: 256k Log Swept Sine, 1 sweep at -12.0 dBFS with no timing reference
* Dated: 2022/10/06 19:48:27
* REW Settings:
*  C-weighting compensation: Off
*  Target level: 75.0 dB
* Note: 
* Measurement: YSM-04RP LC1
* Smoothing: 1/12 octave
* Frequency Step: 1/24 octave
* Start Frequency: 20.000 Hz
*
* Freq(Hz)	SPL(dB)	Phase(degrees)
20.000000	93.080	27.9844
20.600000	93.138	27.3735
21.200001	93.195	26.8059
21.799999	93.253	26.2554
22.400000	93.310	25.6938
23.000000	93.359	25.1278
23.600000	93.398	24.6169
24.299999	93.446	24.1227
25.000000	93.506	23.6281
25.799999	93.565	22.9551
26.500000	93.596	22.4148
27.200001	93.626	22.0129
28.000000	93.676	21.5677
29.000000	93.730	20.9124
30.000000	93.769	20.3386
30.700001	93.799	19.9591
31.500000	93.828	19.5170
32.500000	93.861	19.0355
33.500000	93.902	18.5692
34.500000	93.940	18.0604
35.500000	93.972	17.6040
36.500000	94.006	17.1755
37.500000	94.036	16.7857
38.700001	94.067	16.3617
40.000000	94.099	16.0321
41.200001	94.149	15.6343
42.500000	94.166	15.0406
43.700001	94.171	14.6299
45.000000	94.188	14.1985
46.200001	94.215	13.8103
47.500000	94.256	13.3425
48.700001	94.281	12.8071
50.000000	94.265	12.4213
51.500000	94.272	12.3495
53.000000	94.304	12.1378
54.500000	94.324	11.8329
56.000000	94.339	11.5284
58.000000	94.361	11.1165
60.000000	94.379	10.7435
61.500000	94.392	10.4924
63.000000	94.403	10.2499
65.000000	94.417	9.9241
67.000000	94.429	9.6013
69.000000	94.440	9.3105
71.000000	94.450	9.0377
73.000000	94.459	8.7846
75.000000	94.471	8.5259
77.500000	94.481	8.2158
80.000000	94.487	7.9560
82.500000	94.492	7.7067
85.000000	94.506	7.4448
87.500000	94.526	7.2394
90.000000	94.549	7.0758
92.500000	94.548	6.8234
95.000000	94.534	6.5862
97.500000	94.533	6.3548
100.000000	94.536	6.1437
103.000000	94.534	5.9449
106.000000	94.534	5.7302
109.000000	94.541	5.5189
112.000000	94.546	5.3434
115.000000	94.546	5.1752
118.000000	94.546	5.0040
122.000000	94.545	4.7969
125.000000	94.542	4.6572
128.000000	94.541	4.5155
132.000000	94.541	4.3326
136.000000	94.538	4.1703
140.000000	94.535	4.0131
145.000000	94.531	3.8226
150.000000	94.526	3.6359
155.000000	94.518	3.5024
160.000000	94.509	3.3705
165.000000	94.501	3.2416
170.000000	94.495	3.1298
175.000000	94.488	3.0333
180.000000	94.479	2.9432
185.000000	94.470	2.8779
190.000000	94.459	2.8352
195.000000	94.447	2.7740
200.000000	94.438	2.7445
206.000000	94.424	2.7652
212.000000	94.416	2.8575
218.000000	94.419	2.9738
224.000000	94.441	3.0219
230.000000	94.471	2.9938
236.000000	94.502	2.8793
243.000000	94.527	2.6328
250.000000	94.531	2.3504
258.000000	94.519	2.0595
265.000000	94.501	1.8668
272.000000	94.482	1.7283
280.000000	94.460	1.6151
290.000000	94.433	1.5059
300.000000	94.408	1.4258
307.000000	94.392	1.3945
315.000000	94.373	1.3673
325.000000	94.350	1.3436
335.000000	94.329	1.3303
345.000000	94.307	1.3300
355.000000	94.286	1.3358
365.000000	94.265	1.3451
375.000000	94.244	1.3638
387.000000	94.219	1.3942
400.000000	94.194	1.4359
412.000000	94.171	1.4840
425.000000	94.146	1.5439
437.000000	94.123	1.6093
450.000000	94.098	1.6908
462.000000	94.075	1.7721
475.000000	94.051	1.8651
487.000000	94.028	1.9585
500.000000	94.004	2.0680
515.000000	93.978	2.2000
530.000000	93.952	2.3409
545.000000	93.926	2.4877
560.000000	93.901	2.6425
580.000000	93.868	2.8572
600.000000	93.836	3.0783
615.000000	93.812	3.2457
630.000000	93.789	3.4159
650.000000	93.759	3.6436
670.000000	93.728	3.8652
690.000000	93.697	4.0748
710.000000	93.665	4.2692
730.000000	93.629	4.4484
750.000000	93.587	4.6187
775.000000	93.523	4.8271
800.000000	93.443	5.0524
825.000000	93.342	5.3438
850.000000	93.221	5.7740
875.000000	93.084	6.4199
900.000000	92.944	7.3410
925.000000	92.817	8.5591
950.000000	92.722	10.0398
975.000000	92.674	11.6917
1000.000000	92.678	13.3915
1030.000000	92.747	15.3381
1060.000000	92.870	17.0526
1090.000000	93.028	18.4639
1120.000000	93.202	19.5657
1150.000000	93.377	20.3875
1180.000000	93.542	20.9806
1220.000000	93.739	21.5085
1250.000000	93.867	21.7699
1280.000000	93.976	21.9641
1320.000000	94.097	22.1772
1360.000000	94.195	22.3866
1400.000000	94.274	22.6210
1450.000000	94.353	22.9707
1500.000000	94.415	23.4108
1550.000000	94.465	23.9657
1600.000000	94.508	24.6588
1650.000000	94.552	25.5206
1700.000000	94.607	26.5852
1750.000000	94.693	27.8436
1800.000000	94.831	29.1465
1850.000000	95.011	30.2852
1900.000000	95.212	31.1934
1950.000000	95.418	31.8858
2000.000000	95.613	32.4019
2060.000000	95.828	32.9254
2120.000000	96.031	33.4597
2180.000000	96.235	34.0325
2240.000000	96.448	34.6252
2300.000000	96.675	35.2024
2360.000000	96.916	35.7249
2430.000000	97.208	36.2638
2500.000000	97.515	36.7982
2580.000000	97.916	37.4099
2650.000000	98.328	37.7498
2720.000000	98.786	37.7147
2800.000000	99.345	37.0936
2900.000000	100.065	35.2906
3000.000000	100.756	32.1510
3070.000000	101.179	29.0916
3150.000000	101.552	24.7728
3250.000000	101.779	18.4681
3350.000000	101.682	11.8585
3450.000000	101.242	5.9150
3550.000000	100.503	1.6471
3650.000000	99.570	-0.1703
3750.000000	98.593	0.8610
3870.000000	97.620	5.8219
4000.000000	97.236	14.5441
4120.000000	97.810	22.8492
4250.000000	99.233	27.9883
4370.000000	100.665	26.8821
4500.000000	101.717	20.2280
4620.000000	102.014	12.2747
4750.000000	101.746	5.1547
4870.000000	101.228	1.1663
5000.000000	100.628	-0.6725
5150.000000	100.059	-0.6333
5300.000000	99.691	0.7523
5450.000000	99.535	2.8298
5600.000000	99.587	5.1753
5800.000000	99.980	8.1781
6000.000000	100.753	10.3730
6150.000000	101.590	10.9166
6300.000000	102.627	9.8618
6500.000000	104.169	4.6044
6700.000000	105.483	-6.4536
6900.000000	106.052	-22.4084
7100.000000	105.629	-39.0723
7300.000000	104.433	-52.1503
7500.000000	102.902	-60.5242
7750.000000	101.082	-66.1569
8000.000000	99.654	-69.6458
8250.000000	98.546	-73.4442
8500.000000	97.513	-78.6539
8750.000000	96.289	-84.9993
9000.000000	94.710	-91.0305
9250.000000	92.785	-95.0914
9500.000000	90.656	-96.3364
9750.000000	88.499	-94.8464
10000.000000	86.446	-91.1517
10300.000000	84.214	-84.6151
10600.000000	82.274	-76.5211
10900.000000	80.626	-67.4214
11200.000000	79.255	-57.6949
11500.000000	78.146	-47.6107
11800.000000	77.287	-37.3517
12200.000000	76.523	-23.6091
12500.000000	76.258	-13.3916
12800.000000	76.311	-3.4680
13200.000000	77.015	8.5483
13600.000000	78.626	16.9135
14000.000000	80.811	16.1242
14500.000000	82.183	-5.2835
15000.000000	79.944	-29.2743
15500.000000	75.489	-31.7067
16000.000000	71.329	-20.5629
16500.000000	68.390	-4.6869
17000.000000	66.574	12.4490
17500.000000	65.745	29.0060
18000.000000	65.867	42.7314
18500.000000	66.675	49.5892
19000.000000	67.205	45.4713
19500.000000	66.244	34.7117
20000.000000	63.497	30.5749
20600.000000	58.898	42.2280
21200.000000	54.287	67.6366
21800.000000	50.809	96.4439
