* Measurement data measured by REW V5.20
* Source: ASIO MOTU M Series, In 1
* Format: 256k Log Swept Sine, 1 sweep at -12.0 dBFS with no timing reference
* Dated: 2022/05/14 21:06:25
* REW Settings:
*  C-weighting compensation: Off
*  Target level: 75.0 dB
* Note: 
* Measurement: Yu9 U-556 LC1d
* Smoothing: 1/12 octave
* Frequency Step: 1/24 octave
* Start Frequency: 20.000 Hz
*
* Freq(Hz)	SPL(dB)	Phase(degrees)
20.000000	94.229	-152.9623
20.600000	94.296	-153.6213
21.200001	94.359	-154.2536
21.799999	94.419	-154.8545
22.400000	94.476	-155.4316
23.000000	94.531	-155.9914
23.600000	94.582	-156.5359
24.299999	94.637	-157.1532
25.000000	94.686	-157.7463
25.799999	94.736	-158.3819
26.500000	94.778	-158.9069
27.200001	94.819	-159.4200
28.000000	94.864	-160.0040
29.000000	94.913	-160.7171
30.000000	94.956	-161.3764
30.700001	94.986	-161.8107
31.500000	95.020	-162.2963
32.500000	95.058	-162.8790
33.500000	95.093	-163.4288
34.500000	95.126	-163.9668
35.500000	95.153	-164.4900
36.500000	95.177	-164.9854
37.500000	95.199	-165.4623
38.700001	95.223	-166.0087
40.000000	95.250	-166.5631
41.200001	95.277	-167.0621
42.500000	95.301	-167.5987
43.700001	95.317	-168.0517
45.000000	95.331	-168.4944
46.200001	95.341	-168.8880
47.500000	95.345	-169.3149
48.700001	95.339	-169.6810
50.000000	95.342	-169.9760
51.500000	95.370	-170.4500
53.000000	95.383	-170.9867
54.500000	95.392	-171.4337
56.000000	95.401	-171.8176
58.000000	95.407	-172.2867
60.000000	95.407	-172.7385
61.500000	95.405	-173.0756
63.000000	95.404	-173.3990
65.000000	95.402	-173.7969
67.000000	95.398	-174.1708
69.000000	95.392	-174.5323
71.000000	95.385	-174.8800
73.000000	95.378	-175.2076
75.000000	95.370	-175.5083
77.500000	95.358	-175.8687
80.000000	95.344	-176.2186
82.500000	95.330	-176.5350
85.000000	95.315	-176.8288
87.500000	95.297	-177.1318
90.000000	95.276	-177.4137
92.500000	95.261	-177.6364
95.000000	95.247	-177.8634
97.500000	95.227	-178.1035
100.000000	95.205	-178.3244
103.000000	95.185	-178.5295
106.000000	95.165	-178.7227
109.000000	95.141	-178.9065
112.000000	95.118	-179.0850
115.000000	95.094	-179.2460
118.000000	95.070	-179.3926
122.000000	95.038	-179.5699
125.000000	95.014	-179.6859
128.000000	94.990	-179.7902
132.000000	94.959	-179.9162
136.000000	94.928	179.9701
140.000000	94.897	179.8760
145.000000	94.858	179.7797
150.000000	94.820	179.6970
155.000000	94.784	179.6386
160.000000	94.749	179.5966
165.000000	94.715	179.5710
170.000000	94.681	179.5613
175.000000	94.647	179.5697
180.000000	94.614	179.5915
185.000000	94.583	179.6229
190.000000	94.553	179.6655
195.000000	94.523	179.7218
200.000000	94.493	179.7904
206.000000	94.459	179.8676
212.000000	94.426	179.9579
218.000000	94.395	-179.9433
224.000000	94.364	-179.8330
230.000000	94.334	-179.7147
236.000000	94.304	-179.5874
243.000000	94.271	-179.4229
250.000000	94.238	-179.2455
258.000000	94.204	-179.0454
265.000000	94.176	-178.8627
272.000000	94.149	-178.6717
280.000000	94.118	-178.4459
290.000000	94.081	-178.1599
300.000000	94.047	-177.8650
307.000000	94.024	-177.6458
315.000000	93.998	-177.3900
325.000000	93.967	-177.0645
335.000000	93.938	-176.7377
345.000000	93.912	-176.4083
355.000000	93.885	-176.0689
365.000000	93.858	-175.7120
375.000000	93.832	-175.3517
387.000000	93.802	-174.9170
400.000000	93.771	-174.4364
412.000000	93.743	-173.9775
425.000000	93.713	-173.4588
437.000000	93.684	-172.9586
450.000000	93.654	-172.3798
462.000000	93.625	-171.7874
475.000000	93.601	-171.0484
487.000000	93.598	-170.2829
500.000000	93.627	-169.4976
515.000000	93.681	-168.8757
530.000000	93.709	-168.4816
545.000000	93.708	-168.0732
560.000000	93.695	-167.5704
580.000000	93.677	-166.7799
600.000000	93.664	-165.9054
615.000000	93.659	-165.2112
630.000000	93.657	-164.4882
650.000000	93.659	-163.4870
670.000000	93.667	-162.4485
690.000000	93.683	-161.3694
710.000000	93.705	-160.2533
730.000000	93.737	-159.1015
750.000000	93.778	-157.9190
775.000000	93.843	-156.4008
800.000000	93.927	-154.8409
825.000000	94.030	-153.2568
850.000000	94.156	-151.6638
875.000000	94.306	-150.0757
900.000000	94.481	-148.5186
925.000000	94.681	-147.0202
950.000000	94.905	-145.6086
975.000000	95.152	-144.3128
1000.000000	95.421	-143.1565
1030.000000	95.764	-141.9831
1060.000000	96.125	-141.0684
1090.000000	96.494	-140.4265
1120.000000	96.865	-140.0558
1150.000000	97.230	-139.9473
1180.000000	97.584	-140.0791
1220.000000	98.030	-140.5960
1250.000000	98.340	-141.2208
1280.000000	98.621	-142.0332
1320.000000	98.933	-143.3116
1360.000000	99.170	-144.5221
1400.000000	99.372	-145.4493
1450.000000	99.627	-146.4019
1500.000000	99.878	-147.3013
1550.000000	100.128	-148.1727
1600.000000	100.378	-149.0827
1650.000000	100.621	-150.0501
1700.000000	100.854	-151.0499
1750.000000	101.081	-152.0721
1800.000000	101.304	-153.1233
1850.000000	101.524	-154.2238
1900.000000	101.740	-155.3874
1950.000000	101.950	-156.6149
2000.000000	102.154	-157.9092
2060.000000	102.390	-159.5577
2120.000000	102.614	-161.3185
2180.000000	102.825	-163.1939
2240.000000	103.019	-165.1824
2300.000000	103.194	-167.2822
2360.000000	103.346	-169.4827
2430.000000	103.493	-172.1574
2500.000000	103.602	-174.9218
2580.000000	103.680	-178.1503
2650.000000	103.706	179.0046
2720.000000	103.692	176.1811
2800.000000	103.628	173.0269
2900.000000	103.483	169.2725
3000.000000	103.277	165.8264
3070.000000	103.107	163.6414
3150.000000	102.901	161.3716
3250.000000	102.636	158.7958
3350.000000	102.364	156.4328
3450.000000	102.081	154.2784
3550.000000	101.792	152.3438
3650.000000	101.502	150.6158
3750.000000	101.216	149.0688
3870.000000	100.882	147.4112
4000.000000	100.535	145.7987
4120.000000	100.226	144.4193
4250.000000	99.903	142.9936
4370.000000	99.608	141.7222
4500.000000	99.293	140.3836
4620.000000	99.006	139.1503
4750.000000	98.693	137.7678
4870.000000	98.391	136.4457
5000.000000	98.042	135.0147
5150.000000	97.611	133.4333
5300.000000	97.153	131.9476
5450.000000	96.665	130.5629
5600.000000	96.142	129.3324
5800.000000	95.391	128.0878
6000.000000	94.602	127.4119
6150.000000	94.001	127.2746
6300.000000	93.397	127.4296
6500.000000	92.593	128.0810
6700.000000	91.797	129.2652
6900.000000	91.024	130.9953
7100.000000	90.297	133.2142
7300.000000	89.627	135.7529
7500.000000	89.006	138.5291
7750.000000	88.295	142.3385
8000.000000	87.668	146.4454
8250.000000	87.129	150.7209
8500.000000	86.673	155.0540
8750.000000	86.292	159.3647
9000.000000	85.977	163.6095
9250.000000	85.726	167.7768
9500.000000	85.542	171.7675
9750.000000	85.404	175.4430
10000.000000	85.287	178.8796
10300.000000	85.165	-177.1904
10600.000000	85.063	-173.3710
10900.000000	84.988	-169.5582
11200.000000	84.957	-165.6927
11500.000000	84.988	-161.7815
11800.000000	85.097	-157.8369
12200.000000	85.413	-152.5353
12500.000000	85.834	-148.6275
12800.000000	86.477	-145.0713
13200.000000	87.762	-141.6359
13600.000000	89.684	-141.0938
14000.000000	92.044	-147.4848
14500.000000	94.200	-170.9875
15000.000000	94.025	155.7347
15500.000000	92.224	124.8023
16000.000000	89.323	92.5477
16500.000000	84.319	70.5519
17000.000000	77.658	68.2339
17500.000000	70.632	78.8065
18000.000000	64.018	97.1888
18500.000000	57.879	123.9727
19000.000000	52.200	161.8651
19500.000000	48.020	-152.6187
20000.000000	46.836	-110.4271
20600.000000	47.460	-71.1209
21200.000000	47.866	-41.2623
21800.000000	47.724	-20.9697
