* Measurement data measured by REW V5.19
* Source: Headset (USB-C to 3.5mm Headphone Jack Adapter), no input selected, L, volume: no control
* Format: 256k Log Swept Sine, 1 sweep at -12.0 dBFS  With no timing reference
* Dated: 06-Nov-2021 21:19:54
* REW Settings:
*  C-weighting compensation: Off
*  Target level: 75.0 dB
* Note: 
* Measurement: 7hz Timeless L
* Smoothing: 1/12 octave
* Frequency Step: 1/48 octave
* Start Frequency: 20.3 Hz
*
* Freq(Hz)	SPL(dB)	Phase(degrees)
20.291	124.719	-106.750
20.586	124.743	-107.150
20.885	124.805	-108.027
21.189	124.874	-109.009
21.497	124.947	-109.987
21.810	125.024	-110.924
22.127	125.108	-111.837
22.449	125.201	-112.778
22.776	125.298	-113.796
23.107	125.395	-114.922
23.443	125.483	-116.149
23.784	125.558	-117.444
24.130	125.618	-118.758
24.481	125.665	-120.045
24.837	125.702	-121.266
25.198	125.736	-122.400
25.565	125.773	-123.443
25.937	125.818	-124.412
26.314	125.873	-125.337
26.697	125.938	-126.252
27.085	126.010	-127.182
27.479	126.084	-128.140
27.879	126.157	-129.117
28.284	126.225	-130.102
28.696	126.291	-131.086
29.113	126.352	-132.067
29.537	126.408	-133.049
29.966	126.459	-134.028
30.402	126.503	-134.993
30.844	126.541	-135.930
31.293	126.577	-136.837
31.748	126.614	-137.727
32.210	126.651	-138.619
32.678	126.687	-139.533
33.154	126.722	-140.474
33.636	126.751	-141.435
34.125	126.776	-142.402
34.621	126.796	-143.361
35.125	126.813	-144.297
35.636	126.832	-145.206
36.154	126.854	-146.097
36.680	126.881	-146.990
37.214	126.912	-147.900
37.755	126.944	-148.826
38.304	126.976	-149.762
38.861	127.008	-150.703
39.427	127.040	-151.658
40.000	127.067	-152.631
40.582	127.087	-153.604
41.172	127.097	-154.542
41.771	127.102	-155.422
42.379	127.105	-156.244
42.995	127.109	-157.032
43.620	127.114	-157.808
44.255	127.119	-158.583
44.898	127.123	-159.361
45.552	127.126	-160.143
46.214	127.128	-160.934
46.886	127.130	-161.735
47.568	127.132	-162.547
48.260	127.133	-163.366
48.962	127.133	-164.187
49.674	127.134	-165.007
50.397	127.134	-165.825
51.130	127.134	-166.644
51.874	127.130	-167.459
52.628	127.124	-168.266
53.394	127.115	-169.061
54.170	127.104	-169.848
54.958	127.091	-170.631
55.758	127.075	-171.412
56.569	127.057	-172.191
57.391	127.038	-172.966
58.226	127.018	-173.736
59.073	126.998	-174.504
59.932	126.978	-175.273
60.804	126.955	-176.041
61.688	126.930	-176.796
62.586	126.904	-177.529
63.496	126.878	-178.238
64.420	126.853	-178.929
65.357	126.831	-179.614
66.307	126.810	179.696
67.272	126.789	178.994
68.250	126.764	178.285
69.243	126.735	177.582
70.250	126.702	176.897
71.272	126.667	176.234
72.309	126.630	175.587
73.360	126.593	174.944
74.427	126.556	174.300
75.510	126.517	173.655
76.608	126.478	173.014
77.723	126.438	172.382
78.853	126.397	171.762
80.000	126.355	171.154
81.164	126.314	170.552
82.344	126.272	169.947
83.542	126.230	169.338
84.757	126.185	168.729
85.990	126.138	168.132
87.241	126.090	167.557
88.510	126.042	167.002
89.797	125.995	166.456
91.103	125.947	165.908
92.428	125.898	165.352
93.773	125.848	164.789
95.137	125.798	164.227
96.520	125.747	163.673
97.924	125.695	163.132
99.349	125.642	162.602
100.794	125.586	162.083
102.260	125.528	161.574
103.747	125.468	161.076
105.256	125.409	160.588
106.787	125.351	160.110
108.340	125.293	159.640
109.916	125.236	159.171
111.515	125.181	158.696
113.137	125.129	158.218
114.783	125.084	157.751
116.452	125.043	157.302
118.146	124.999	156.866
119.865	124.943	156.439
121.608	124.867	156.031
123.377	124.777	155.650
125.171	124.686	155.284
126.992	124.602	154.914
128.839	124.526	154.538
130.713	124.455	154.164
132.615	124.382	153.799
134.543	124.308	153.445
136.500	124.232	153.111
138.486	124.155	152.801
140.500	124.079	152.513
142.544	124.002	152.238
144.617	123.923	151.970
146.721	123.842	151.714
148.855	123.760	151.481
151.020	123.677	151.282
153.217	123.595	151.120
155.445	123.514	151.006
157.706	123.436	150.952
160.000	123.366	150.975
162.327	123.308	151.082
164.688	123.265	151.255
167.084	123.241	151.436
169.514	123.233	151.547
171.980	123.237	151.521
174.481	123.244	151.327
177.019	123.247	150.974
179.594	123.237	150.511
182.206	123.210	149.999
184.856	123.166	149.489
187.545	123.111	149.015
190.273	123.047	148.592
193.041	122.977	148.221
195.849	122.904	147.897
198.697	122.827	147.609
201.587	122.749	147.353
204.520	122.671	147.126
207.494	122.596	146.928
210.512	122.523	146.756
213.574	122.453	146.600
216.681	122.384	146.454
219.833	122.317	146.315
223.030	122.251	146.186
226.274	122.188	146.070
229.565	122.125	145.966
232.905	122.063	145.868
236.292	122.000	145.774
239.729	121.936	145.686
243.216	121.873	145.606
246.754	121.812	145.540
250.343	121.752	145.490
253.984	121.695	145.456
257.678	121.641	145.429
261.426	121.591	145.399
265.229	121.545	145.356
269.087	121.501	145.293
273.001	121.457	145.211
276.972	121.411	145.116
281.000	121.362	145.017
285.088	121.310	144.918
289.234	121.254	144.821
293.441	121.196	144.729
297.710	121.136	144.649
302.040	121.076	144.587
306.433	121.017	144.548
310.890	120.957	144.532
315.412	120.897	144.536
320.000	120.837	144.559
324.655	120.779	144.604
329.377	120.724	144.675
334.168	120.671	144.774
339.028	120.623	144.891
343.959	120.578	145.010
348.962	120.537	145.112
354.038	120.499	145.185
359.188	120.462	145.224
364.412	120.425	145.240
369.713	120.385	145.245
375.090	120.344	145.252
380.546	120.301	145.272
386.081	120.257	145.308
391.697	120.213	145.357
397.395	120.169	145.418
403.175	120.126	145.491
409.039	120.085	145.574
414.989	120.045	145.665
421.025	120.007	145.760
427.149	119.970	145.862
433.362	119.936	145.970
439.665	119.904	146.085
446.060	119.872	146.207
452.548	119.841	146.334
459.131	119.811	146.465
465.809	119.782	146.602
472.584	119.753	146.746
479.458	119.726	146.897
486.432	119.699	147.054
493.507	119.674	147.216
500.686	119.650	147.381
507.968	119.627	147.551
515.357	119.606	147.726
522.853	119.585	147.908
530.458	119.564	148.096
538.174	119.544	148.289
546.002	119.525	148.484
553.943	119.506	148.681
562.001	119.488	148.883
570.175	119.472	149.095
578.469	119.456	149.320
586.883	119.443	149.556
595.419	119.434	149.796
604.080	119.427	150.038
612.866	119.423	150.284
621.780	119.422	150.539
630.824	119.422	150.807
640.000	119.424	151.085
649.309	119.428	151.370
658.753	119.433	151.659
668.335	119.440	151.954
678.056	119.448	152.255
687.919	119.459	152.563
697.925	119.472	152.879
708.076	119.488	153.202
718.376	119.505	153.535
728.825	119.524	153.875
739.426	119.546	154.224
750.181	119.571	154.581
761.093	119.597	154.947
772.163	119.627	155.321
783.394	119.659	155.698
794.789	119.695	156.075
806.349	119.735	156.454
818.078	119.778	156.836
829.977	119.826	157.223
842.050	119.877	157.612
854.297	119.931	158.000
866.724	119.990	158.384
879.330	120.053	158.761
892.120	120.119	159.132
905.097	120.190	159.494
918.262	120.264	159.845
931.618	120.343	160.184
945.169	120.426	160.507
958.917	120.513	160.812
972.864	120.603	161.096
987.015	120.697	161.355
1001.371	120.794	161.590
1015.937	120.893	161.796
1030.714	120.995	161.974
1045.706	121.100	162.122
1060.916	121.207	162.242
1076.347	121.316	162.333
1092.003	121.427	162.394
1107.887	121.540	162.426
1124.001	121.653	162.430
1140.350	121.768	162.409
1156.937	121.883	162.365
1173.765	121.998	162.300
1190.838	122.114	162.215
1208.159	122.230	162.114
1225.732	122.345	162.000
1243.561	122.461	161.874
1261.649	122.576	161.739
1280.000	122.691	161.597
1298.618	122.805	161.450
1317.507	122.918	161.301
1336.670	123.029	161.149
1356.113	123.138	160.997
1375.838	123.243	160.844
1395.850	123.347	160.692
1416.153	123.451	160.542
1436.751	123.557	160.395
1457.649	123.666	160.252
1478.851	123.782	160.111
1500.362	123.906	159.973
1522.185	124.043	159.835
1544.326	124.194	159.694
1566.789	124.360	159.547
1589.578	124.539	159.383
1612.699	124.733	159.193
1636.156	124.939	158.959
1659.955	125.158	158.663
1684.099	125.389	158.285
1708.595	125.631	157.802
1733.447	125.879	157.196
1758.661	126.127	156.457
1784.241	126.371	155.583
1810.193	126.606	154.586
1836.523	126.827	153.481
1863.236	127.033	152.291
1890.338	127.220	151.037
1917.833	127.386	149.736
1945.729	127.531	148.401
1974.030	127.657	147.042
2002.743	127.766	145.660
2031.873	127.860	144.253
2061.428	127.939	142.821
2091.412	127.999	141.379
2121.832	128.039	139.958
2152.695	128.058	138.609
2184.007	128.062	137.387
2215.774	128.060	136.329
2248.003	128.062	135.437
2280.701	128.080	134.672
2313.874	128.118	133.968
2347.530	128.178	133.253
2381.676	128.255	132.468
2416.318	128.341	131.578
2451.464	128.429	130.575
2487.122	128.514	129.464
2523.298	128.591	128.264
2560.000	128.657	126.995
2597.236	128.712	125.678
2635.014	128.756	124.331
2673.341	128.789	122.967
2712.226	128.811	121.596
2751.676	128.826	120.220
2791.700	128.835	118.836
2832.306	128.840	117.433
2873.503	128.843	115.987
2915.299	128.848	114.458
2957.703	128.851	112.785
3000.724	128.850	110.889
3044.370	128.829	108.687
3088.652	128.767	106.131
3133.577	128.630	103.269
3179.156	128.384	100.319
3225.398	128.004	97.684
3272.312	127.490	95.851
3319.909	126.883	95.190
3368.198	126.254	95.782
3417.190	125.689	97.397
3466.894	125.257	99.616
3517.321	124.980	101.986
3568.482	124.834	104.155
3620.387	124.768	105.950
3673.046	124.729	107.388
3726.472	124.682	108.628
3780.675	124.618	109.885
3835.666	124.551	111.318
3891.457	124.508	112.941
3948.060	124.510	114.640
4005.486	124.561	116.248
4063.747	124.648	117.644
4122.855	124.755	118.779
4182.824	124.866	119.654
4243.664	124.970	120.287
4305.390	125.055	120.697
4368.013	125.109	120.917
4431.547	125.123	121.012
4496.005	125.089	121.107
4561.401	125.013	121.360
4627.749	124.914	121.891
4695.061	124.821	122.700
4763.352	124.752	123.685
4832.637	124.710	124.731
4902.929	124.691	125.791
4974.244	124.694	126.862
5046.596	124.721	127.914
5120.000	124.774	128.865
5194.472	124.844	129.613
5270.027	124.916	130.082
5346.682	124.970	130.241
5424.451	124.982	130.110
5503.352	124.930	129.791
5583.399	124.790	129.499
5664.612	124.550	129.574
5747.006	124.229	130.398
5830.598	123.881	132.201
5915.406	123.587	134.874
6001.447	123.413	137.971
6088.740	123.359	140.935
6177.303	123.358	143.420
6267.154	123.323	145.530
6358.312	123.202	147.815
6450.796	123.021	150.986
6544.625	122.897	155.450
6639.818	122.989	160.926
6736.397	123.374	166.532
6834.380	123.984	171.331
6933.789	124.683	174.816
7034.643	125.364	177.026
7136.964	125.993	178.414
7240.773	126.621	179.632
7346.093	127.374	-178.839
7452.944	128.358	-177.189
7561.350	129.520	-176.532
7671.332	130.642	-178.389
7782.915	131.489	176.452
7896.120	131.929	168.685
8010.971	131.947	160.026
8127.493	131.602	152.105
8245.711	130.986	145.822
8365.647	130.192	141.376
8487.328	129.304	138.526
8610.779	128.386	136.839
8736.026	127.464	135.923
8863.095	126.523	135.664
8992.011	125.517	136.359
9122.803	124.415	138.584
9255.497	123.241	142.798
9390.121	122.105	148.925
9526.704	121.173	156.254
9665.273	120.572	163.752
9805.857	120.288	170.536
9948.487	120.193	176.207
10093.191	120.142	-179.083
10240.000	120.063	-174.812
10388.944	119.969	-170.505
10540.055	119.925	-166.142
10693.363	119.957	-162.167
10848.902	120.013	-159.010
11006.703	120.009	-156.670
11166.799	119.888	-154.737
11329.224	119.644	-152.697
11494.012	119.307	-150.162
11661.195	118.928	-146.970
11830.812	118.572	-143.228
12002.895	118.285	-139.286
12177.480	118.063	-135.524
12354.606	117.849	-132.006
12534.309	117.582	-128.276
12716.624	117.280	-123.611
12901.592	117.076	-117.665
13089.250	117.149	-110.980
13279.637	117.552	-104.841
13472.794	118.144	-100.486
13668.760	118.724	-98.381
13867.577	119.167	-98.144
14069.285	119.437	-98.975
14273.928	119.557	-100.137
14481.547	119.577	-101.220
14692.186	119.555	-102.195
14905.889	119.534	-103.323
15122.700	119.522	-104.993
15342.664	119.495	-107.543
15565.829	119.408	-111.150
15792.239	119.210	-115.804
16021.942	118.859	-121.339
16254.986	118.318	-127.459
16491.422	117.562	-133.764
16731.295	116.576	-139.746
16974.656	115.347	-144.773
17221.559	113.878	-148.142
17472.053	112.191	-149.239
17726.189	110.354	-147.860
17984.021	108.527	-144.672
18245.605	106.984	-141.496
18510.994	105.961	-140.805
18780.242	105.354	-144.298
19053.408	104.795	-151.678
19330.547	104.011	-160.854
19611.715	103.001	-169.226
19896.975	102.073	-174.777
