* Measurement data measured by REW V5.20 Beta 47
* Source: Headset (USB-C to 3.5mm Headphone Jack Adapter), MICROPHONE (Master Volume), R, volume: 0.000
* Format: 256k Log Swept Sine, 1 sweep at 0.0 dBFS with no timing reference
* Dated: Apr 25, 2020 9:35:15 PM
* REW Settings:
*  C-weighting compensation: Off
*  Target level: 75.0 dB
* Note: ; 
* Measurement: Sony XBA-300 R
* Smoothing: None
* Frequency Step: 1/48 octave
* Start Frequency: 20.300 Hz
*
* Freq(Hz)	SPL(dB)	Phase(degrees)
20.3000	88.4242	-179.78
20.6000	88.4306	-179.99
20.9000	88.4498	179.78
21.2000	88.4811	179.47
21.4000	88.5006	179.21
21.8000	88.5275	178.71
22.0000	88.5343	178.50
22.4000	88.5441	178.25
22.7000	88.5559	178.26
23.0000	88.5822	178.38
23.3000	88.6240	178.48
23.6000	88.6680	178.49
24.0000	88.7052	178.30
24.3000	88.7028	178.04
24.7000	88.6568	177.67
25.0000	88.6043	177.49
25.4000	88.5421	177.40
25.8000	88.5122	177.41
26.2000	88.5183	177.41
26.5000	88.5344	177.35
26.9000	88.5510	177.25
27.2000	88.5553	177.22
27.6000	88.5558	177.27
28.0000	88.5606	177.36
28.5000	88.5854	177.32
29.0000	88.6161	177.01
29.5000	88.6381	176.55
30.0000	88.6486	176.19
30.4000	88.6582	176.04
30.7000	88.6650	176.00
31.1000	88.6672	175.99
31.5000	88.6573	176.02
32.0000	88.6349	176.16
32.5000	88.6331	176.31
33.0000	88.6631	176.26
33.5000	88.6932	175.86
34.0000	88.6797	175.34
34.5000	88.6314	175.01
35.0000	88.5899	174.97
35.5000	88.5877	174.92
36.0000	88.6018	174.63
36.5000	88.5981	174.22
37.0000	88.5834	174.04
37.5000	88.5942	174.14
38.2000	88.6491	174.22
38.7000	88.6663	174.04
39.5000	88.6373	173.69
40.0000	88.6267	173.50
40.6000	88.6212	173.16
41.2000	88.5847	172.94
41.8000	88.5376	173.12
42.5000	88.5437	173.46
43.1000	88.5952	173.23
43.7000	88.6332	172.60
44.4000	88.6450	172.10
45.0000	88.6465	172.21
45.5000	88.6390	172.58
46.2000	88.5955	173.19
46.8000	88.5368	173.45
47.5000	88.4848	173.22
48.2000	88.4804	172.60
48.7000	88.5071	172.18
49.4000	88.5519	171.85
50.0000	88.5561	171.82
50.8000	88.5143	171.90
51.5000	88.4826	171.85
52.2000	88.4883	171.54
53.0000	88.5129	171.18
53.8000	88.5200	171.12
54.5000	88.5030	171.12
55.2000	88.4676	170.97
56.0000	88.4300	170.75
57.0000	88.4260	170.68
58.0000	88.4230	170.64
59.0000	88.4075	170.43
60.0000	88.4335	170.12
60.8000	88.4379	169.94
61.5000	88.3988	169.89
62.2000	88.3417	169.81
63.0000	88.3141	169.53
64.0000	88.3528	169.19
65.0000	88.3937	169.51
66.0000	88.3671	169.77
67.0000	88.2439	169.44
68.0000	88.2281	169.23
69.0000	88.3170	168.71
70.0000	88.2734	168.46
71.0000	88.2366	168.63
72.0000	88.2072	168.30
73.0000	88.1628	168.19
74.0000	88.2009	168.10
75.0000	88.2272	167.89
76.2000	88.2136	168.00
77.5000	88.1569	167.86
78.8000	88.1554	167.74
80.0000	88.1203	167.56
81.2000	88.0801	167.35
82.5000	88.0585	167.02
83.8000	88.0752	167.02
85.0000	88.0117	166.68
86.2000	87.9787	166.41
87.5000	87.9785	166.50
88.5000	87.9957	166.28
90.0000	87.9272	166.35
91.2000	87.9003	166.14
92.5000	87.8430	165.83
93.8000	87.9004	165.63
95.0000	87.7570	166.19
96.2000	87.7557	165.73
97.5000	87.7700	164.59
98.8000	87.7330	164.81
100.0000	87.6834	165.66
101.5000	87.6880	165.00
103.0000	87.6378	165.43
104.4000	87.7027	164.54
106.0000	87.5137	164.74
107.5000	87.5538	164.59
109.0000	87.5433	164.26
110.6000	87.4925	164.27
112.0000	87.4618	163.92
113.8000	87.4090	164.29
115.0000	87.4150	164.06
117.2000	87.3431	163.87
118.0000	87.3170	163.75
120.6000	87.2836	163.60
122.0000	87.2335	163.68
124.1000	87.1448	163.87
125.0000	87.1450	163.60
126.5000	87.0327	163.74
128.0000	86.9965	163.62
131.5000	86.8609	164.06
132.0000	86.8639	164.39
134.0000	86.8097	164.47
136.0000	86.8405	165.03
138.0000	86.7559	166.43
140.0000	86.7245	166.47
143.0000	86.9649	167.13
145.0000	87.0764	167.05
147.5000	87.2861	166.70
150.0000	87.2633	165.33
152.5000	87.2825	164.88
155.0000	87.2850	163.40
157.5000	87.2487	163.20
160.0000	87.1543	163.03
162.5000	87.1122	162.04
165.0000	87.0566	162.28
167.5000	86.9217	161.41
170.0000	86.9158	161.74
172.5000	86.8207	161.14
175.0000	86.8079	161.46
177.5000	86.7226	160.67
180.0000	86.5980	160.98
182.5000	86.5726	160.72
185.0000	86.4185	160.80
187.5000	86.4026	161.28
190.0000	86.3930	160.82
192.5000	86.2653	161.01
195.0000	86.1981	161.31
197.5000	86.1807	160.94
200.0000	86.1109	160.93
203.0000	86.0416	161.09
206.0000	85.9643	161.80
209.0000	86.0414	161.96
212.0000	85.9380	161.73
214.0000	85.9054	162.35
218.0000	85.8849	162.00
220.0000	85.7426	161.36
224.0000	86.0277	163.02
227.0000	85.9678	161.00
230.0000	85.8115	162.13
233.0000	86.0448	161.91
236.0000	86.0867	161.33
240.0000	85.6866	159.87
243.0000	85.7173	161.04
247.0000	85.7524	161.35
250.0000	85.6130	161.57
254.0000	85.4738	160.93
258.0000	85.3823	160.82
262.0000	85.3823	160.75
265.0000	85.2925	161.13
269.0000	85.1525	160.77
272.0000	85.1664	160.66
276.0000	85.1210	160.84
280.0000	85.0535	160.70
285.0000	85.0620	160.89
290.0000	84.9309	161.07
295.0000	84.8779	161.11
300.0000	84.8029	161.16
304.0000	84.6941	161.32
307.0000	84.6485	161.46
311.0000	84.6141	161.99
315.0000	84.6281	161.89
320.0000	84.3975	162.33
325.0000	84.4741	162.08
330.0000	84.3508	162.48
335.0000	84.3194	162.40
340.0000	84.2376	162.91
345.0000	84.0624	162.59
350.0000	84.1972	162.77
355.0000	84.0568	163.33
360.0000	84.0615	163.60
365.0000	83.9200	163.89
370.0000	83.8981	164.14
375.0000	83.8477	164.35
382.0000	83.7713	164.74
387.0000	83.7157	164.69
395.0000	83.6553	165.02
400.0000	83.6090	165.52
406.0000	83.5427	165.61
412.0000	83.4687	165.94
418.0000	83.4416	166.11
425.0000	83.3685	166.71
431.0000	83.3125	167.33
437.0000	83.2871	167.05
444.0000	83.2111	167.29
450.0000	83.1090	168.14
455.0000	83.0614	168.31
462.0000	83.0413	168.58
468.0000	82.9220	168.86
475.0000	82.9444	167.91
482.0000	83.0828	170.10
487.0000	83.0004	169.44
494.0000	82.8774	169.61
500.0000	82.8154	170.23
508.0000	82.7815	171.06
515.0000	82.7771	171.93
522.0000	82.6424	171.87
530.0000	82.7189	172.10
538.0000	82.5675	172.65
545.0000	82.5237	173.85
552.0000	82.6010	173.62
560.0000	82.5407	173.70
570.0000	82.4744	174.45
580.0000	82.3824	175.29
590.0000	82.3387	175.95
600.0000	82.2787	176.23
608.0000	82.3056	176.80
615.0000	82.2974	178.38
622.0000	82.2212	178.07
630.0000	82.1720	179.09
640.0000	82.0903	179.45
650.0000	82.1248	179.63
660.0000	82.1613	-179.08
670.0000	82.0285	-178.48
680.0000	82.0842	-177.66
690.0000	81.9876	-175.64
700.0000	82.1274	-176.07
710.0000	82.0934	-175.14
720.0000	81.9779	-174.76
730.0000	81.9569	-174.35
740.0000	82.0089	-173.61
750.0000	81.9633	-172.84
762.0000	81.9256	-171.92
775.0000	81.9750	-170.70
788.0000	81.9508	-170.13
800.0000	82.0306	-169.01
812.0000	81.9909	-168.63
825.0000	81.9725	-167.66
838.0000	82.0182	-166.89
850.0000	82.0968	-165.20
862.0000	82.0071	-166.21
875.0000	82.1476	-163.92
885.0000	82.1770	-163.41
900.0000	82.2054	-162.13
912.0000	82.2688	-161.27
925.0000	82.3072	-160.33
938.0000	82.3885	-159.48
950.0000	82.4259	-158.90
962.0000	82.4440	-158.09
975.0000	82.5419	-157.27
988.0000	82.6547	-156.36
1000.0000	82.7955	-155.45
1015.0000	82.8186	-154.72
1030.0000	82.8692	-154.53
1044.0000	82.9592	-153.46
1060.0000	83.0761	-152.78
1075.0000	83.1974	-152.39
1090.0000	83.2500	-151.51
1106.0000	83.3730	-150.84
1120.0000	83.4448	-150.60
1138.0000	83.6137	-150.03
1150.0000	83.7175	-149.75
1172.0000	83.8935	-149.14
1180.0000	83.9304	-148.95
1206.0000	84.1074	-148.29
1220.0000	84.2262	-147.98
1241.0000	84.3248	-147.39
1250.0000	84.3938	-147.38
1265.0000	84.4893	-147.34
1280.0000	84.5751	-146.95
1315.0000	84.7941	-146.44
1320.0000	84.8091	-146.32
1340.0000	84.9379	-146.05
1360.0000	85.0613	-145.81
1380.0000	85.1636	-145.48
1400.0000	85.2938	-145.32
1430.0000	85.4597	-144.91
1450.0000	85.5820	-144.58
1475.0000	85.7071	-144.25
1500.0000	85.8349	-143.89
1525.0000	85.9650	-143.53
1550.0000	86.0774	-143.17
1575.0000	86.2126	-142.88
1600.0000	86.3253	-142.48
1625.0000	86.4565	-142.06
1650.0000	86.5950	-141.67
1675.0000	86.7221	-141.28
1700.0000	86.8728	-140.87
1725.0000	87.0155	-140.54
1750.0000	87.1548	-140.16
1775.0000	87.2984	-139.82
1800.0000	87.4484	-139.38
1825.0000	87.5907	-139.12
1850.0000	87.7630	-138.81
1875.0000	87.9283	-138.47
1900.0000	88.0467	-138.06
1925.0000	88.2248	-137.96
1950.0000	88.3835	-137.66
1975.0000	88.5261	-137.50
2000.0000	88.6251	-137.59
2030.0000	88.8980	-137.12
2060.0000	89.1086	-136.89
2090.0000	89.3328	-136.82
2120.0000	89.5430	-136.69
2140.0000	89.6888	-136.64
2180.0000	89.9888	-136.70
2200.0000	90.1318	-136.79
2240.0000	90.4284	-137.13
2270.0000	90.6403	-137.89
2300.0000	90.8609	-138.71
2330.0000	91.0783	-139.68
2360.0000	91.2953	-140.88
2400.0000	91.5733	-142.29
2430.0000	91.8163	-143.15
2470.0000	92.0675	-144.43
2500.0000	92.2782	-145.57
2540.0000	92.4982	-147.29
2580.0000	92.6837	-149.34
2620.0000	92.8029	-151.67
2650.0000	92.8447	-153.46
2690.0000	92.8136	-155.72
2720.0000	92.7343	-157.17
2760.0000	92.5708	-158.77
2800.0000	92.3901	-159.69
2850.0000	92.1737	-160.03
2900.0000	92.0306	-159.87
2950.0000	91.9922	-159.16
3000.0000	92.0727	-158.69
3040.0000	92.1489	-159.11
3070.0000	92.2088	-159.57
3110.0000	92.2909	-160.24
3150.0000	92.3060	-161.05
3200.0000	92.3018	-162.23
3250.0000	92.2101	-163.26
3300.0000	92.0645	-164.08
3350.0000	91.8782	-164.34
3400.0000	91.6770	-163.82
3450.0000	91.5750	-162.67
3500.0000	91.5976	-160.97
3550.0000	91.7493	-159.49
3600.0000	92.0346	-158.37
3650.0000	92.3597	-157.93
3700.0000	92.6802	-158.11
3750.0000	93.0072	-158.70
3820.0000	93.4076	-160.15
3870.0000	93.6539	-161.41
3950.0000	93.9407	-163.85
4000.0000	94.1030	-165.72
4060.0000	94.3026	-167.57
4120.0000	94.4947	-169.98
4180.0000	94.6226	-172.47
4250.0000	94.7133	-175.65
4310.0000	94.7417	-178.34
4370.0000	94.7146	178.72
4440.0000	94.6046	175.36
4500.0000	94.4568	172.37
4550.0000	94.2845	169.81
4620.0000	93.9619	166.56
4680.0000	93.6064	163.96
4750.0000	93.1435	161.49
4820.0000	92.6284	159.71
4870.0000	92.2520	158.92
4940.0000	91.7212	158.12
5000.0000	91.2772	157.81
5080.0000	90.7519	158.46
5150.0000	90.3143	159.15
5220.0000	89.9719	160.02
5300.0000	89.5961	161.39
5380.0000	89.3278	162.87
5450.0000	89.1315	163.96
5520.0000	88.8961	164.71
5600.0000	88.6222	165.74
5700.0000	88.3071	166.96
5800.0000	87.9795	168.20
5900.0000	87.6619	170.03
6000.0000	87.3490	171.80
6080.0000	87.1203	173.81
6150.0000	86.9568	175.36
6220.0000	86.8131	177.08
6300.0000	86.7485	179.27
6400.0000	86.6673	-178.19
6500.0000	86.6447	-175.54
6600.0000	86.6994	-172.87
6700.0000	86.8086	-170.23
6800.0000	86.9842	-167.72
6900.0000	87.2033	-165.09
7000.0000	87.5378	-162.90
7100.0000	87.9258	-160.90
7200.0000	88.3766	-159.20
7300.0000	88.9041	-157.93
7400.0000	89.5047	-157.29
7500.0000	90.1369	-157.32
7620.0000	90.9170	-158.42
7750.0000	91.6998	-161.14
7880.0000	92.3414	-165.53
8000.0000	92.7157	-170.97
8120.0000	92.8117	-176.95
8250.0000	92.6158	176.88
8380.0000	92.1560	171.80
8500.0000	91.5936	168.42
8620.0000	90.9873	166.33
8750.0000	90.3081	165.21
8850.0000	89.8090	165.06
9000.0000	89.1643	165.52
9120.0000	88.7378	166.22
9250.0000	88.3570	167.19
9380.0000	88.0437	168.23
9500.0000	87.8285	169.31
9620.0000	87.6572	170.25
9750.0000	87.5380	171.44
9880.0000	87.5026	172.47
10000.0000	87.5373	173.19
10150.0000	87.7094	173.89
10300.0000	88.0017	173.97
10440.0000	88.3700	172.99
10600.0000	88.9102	170.34
10750.0000	89.4096	166.03
10900.0000	89.7682	159.78
11060.0000	89.8402	151.60
11200.0000	89.5655	144.16
11380.0000	88.8508	136.19
11500.0000	88.2930	132.14
11720.0000	87.3385	127.14
11800.0000	87.0623	125.80
12060.0000	86.4791	121.95
12200.0000	86.3390	118.82
12410.0000	86.2275	112.13
12500.0000	86.0747	108.33
12650.0000	85.5320	101.44
12800.0000	84.6352	95.21
13150.0000	81.9062	88.43
13200.0000	81.5297	88.37
13400.0000	80.1866	89.22
13600.0000	79.1127	91.55
13800.0000	78.3250	94.23
14000.0000	77.8372	96.42
14300.0000	77.4392	98.51
14500.0000	77.4514	98.74
14750.0000	77.5644	96.27
15000.0000	77.9232	91.76
15250.0000	78.5038	84.37
15500.0000	79.1851	74.41
15750.0000	80.0017	61.58
16000.0000	80.7841	46.17
16250.0000	81.4230	29.43
16500.0000	81.7331	12.09
16750.0000	81.8365	-4.51
17000.0000	81.8034	-20.14
17250.0000	81.6485	-35.09
17500.0000	81.4011	-50.38
17750.0000	80.9621	-68.89
18000.0000	80.0990	-92.62
18250.0000	78.4311	-117.89
18500.0000	76.0306	-141.69
18750.0000	72.9026	-161.05
19000.0000	69.4643	-177.42
19250.0000	65.5989	164.21
19500.0000	61.0595	138.45
19750.0000	58.0027	92.92
