* Measurement data measured by REW V5.20.13
* Source: Microphone (USB Sound Device        ), MICROPHONE (Master Volume), L, volume: 0.250
* Format: 128k Log Swept Sine, 1 sweep at -12.0 dBFS with no timing reference
* Dated: Oct 6, 2023 11:44:16 AM
* REW Settings:
*  C-weighting compensation: Off
*  Target level: 75.0 dB
* Note: 
* Measurement: EPZ 530 R FINAL
* Smoothing: 1/12 octave
* Frequency Step: 1/48 octave
* Start Frequency: 20.000 Hz
*
* Freq(Hz)	SPL(dB)	Phase(degrees)
20.000000	90.362	199.8538
20.299999	90.366	199.3490
20.600000	90.374	198.8489
20.900000	90.386	198.3566
21.200001	90.402	197.8727
21.400000	90.414	197.5550
21.799999	90.444	196.9333
22.000000	90.461	196.6315
22.400000	90.494	196.0530
22.700001	90.520	195.6474
23.000000	90.546	195.2708
23.299999	90.571	194.9238
23.600000	90.595	194.6037
24.000000	90.626	194.2108
24.299999	90.648	193.9337
24.700001	90.673	193.5790
25.000000	90.688	193.3204
25.400000	90.702	192.9842
25.799999	90.710	192.6584
26.200001	90.713	192.3422
26.500000	90.712	192.1088
26.900000	90.709	191.7982
27.200001	90.707	191.5621
27.600000	90.704	191.2390
28.000000	90.702	190.9023
28.500000	90.704	190.4581
29.000000	90.709	189.9861
29.500000	90.717	189.4915
30.000000	90.726	188.9896
30.400000	90.735	188.5960
30.700001	90.741	188.3106
31.100000	90.751	187.9465
31.500000	90.761	187.6016
32.000000	90.773	187.1956
32.500000	90.785	186.8173
33.000000	90.794	186.4674
33.500000	90.801	186.1423
34.000000	90.807	185.8296
34.500000	90.812	185.5141
35.000000	90.813	185.1888
35.500000	90.811	184.8587
36.000000	90.805	184.5340
36.500000	90.800	184.2184
37.000000	90.797	183.9046
37.500000	90.797	183.5822
38.200001	90.799	183.1090
38.700001	90.801	182.7633
39.500000	90.804	182.2222
40.000000	90.804	181.8994
40.599998	90.805	181.5294
41.200001	90.804	181.1776
41.799999	90.802	180.8409
42.500000	90.798	180.4615
43.099998	90.794	180.1422
43.700001	90.790	179.8158
44.400002	90.786	179.4057
45.000000	90.779	179.0288
45.500000	90.770	178.7176
46.200001	90.754	178.3239
46.799999	90.745	178.0329
47.500000	90.744	177.7068
48.200001	90.748	177.3455
48.700001	90.750	177.0642
49.400002	90.744	176.6778
50.000000	90.734	176.3930
50.799999	90.721	176.0869
51.500000	90.715	175.8405
52.200001	90.711	175.5741
53.000000	90.705	175.2455
53.799999	90.695	174.9081
54.500000	90.686	174.6082
55.200001	90.676	174.3049
56.000000	90.662	173.9621
57.000000	90.646	173.5512
58.000000	90.630	173.1591
59.000000	90.615	172.7762
60.000000	90.598	172.3954
60.799999	90.583	172.0926
61.500000	90.568	171.8341
62.200001	90.552	171.5853
63.000000	90.534	171.3099
64.000000	90.513	170.9668
65.000000	90.492	170.6200
66.000000	90.470	170.2811
67.000000	90.446	169.9675
68.000000	90.422	169.6875
69.000000	90.399	169.4374
70.000000	90.375	169.2077
71.000000	90.351	168.9860
72.000000	90.326	168.7657
73.000000	90.298	168.5534
74.000000	90.271	168.3560
75.000000	90.248	168.1622
76.199997	90.223	167.9231
77.500000	90.196	167.6875
78.800003	90.171	167.5110
80.000000	90.153	167.3892
81.199997	90.137	167.2890
82.500000	90.122	167.2064
83.800003	90.111	167.1586
85.000000	90.109	167.1422
86.199997	90.119	167.1376
87.500000	90.147	167.1103
88.500000	90.182	167.0422
90.000000	90.248	166.8213
91.199997	90.306	166.5305
92.500000	90.366	166.1271
93.800003	90.420	165.6702
95.000000	90.464	165.1989
96.199997	90.499	164.6656
97.500000	90.521	164.0288
98.800003	90.527	163.3698
100.000000	90.524	162.7776
101.500000	90.520	162.0567
103.000000	90.516	161.3319
104.400002	90.503	160.6692
106.000000	90.476	159.9615
107.500000	90.439	159.3501
109.000000	90.397	158.7674
110.599998	90.351	158.1551
112.000000	90.313	157.6226
113.800003	90.264	156.9652
115.000000	90.232	156.5596
117.199997	90.172	155.8870
118.000000	90.151	155.6590
120.599998	90.081	154.9463
122.000000	90.044	154.5725
124.099998	89.989	154.0222
125.000000	89.966	153.7937
126.500000	89.926	153.4303
128.000000	89.889	153.0891
131.500000	89.810	152.3343
132.000000	89.799	152.2274
134.000000	89.756	151.7984
136.000000	89.713	151.3659
138.000000	89.668	150.9299
140.000000	89.622	150.4887
143.000000	89.552	149.8192
145.000000	89.504	149.3769
147.500000	89.442	148.8453
150.000000	89.379	148.3399
152.500000	89.316	147.8501
155.000000	89.252	147.3662
157.500000	89.188	146.8895
160.000000	89.123	146.4301
162.500000	89.056	145.9899
165.000000	88.989	145.5636
167.500000	88.923	145.1499
170.000000	88.858	144.7501
172.500000	88.794	144.3629
175.000000	88.728	143.9877
177.500000	88.662	143.6291
180.000000	88.596	143.2912
182.500000	88.529	142.9710
185.000000	88.463	142.6618
187.500000	88.395	142.3610
190.000000	88.327	142.0713
192.500000	88.258	141.7987
195.000000	88.188	141.5472
197.500000	88.116	141.3162
200.000000	88.046	141.1047
203.000000	87.968	140.8790
206.000000	87.893	140.6979
209.000000	87.819	140.5734
212.000000	87.749	140.5049
214.000000	87.707	140.4908
218.000000	87.638	140.5338
220.000000	87.614	140.5771
224.000000	87.591	140.6456
227.000000	87.596	140.6243
230.000000	87.612	140.4859
233.000000	87.632	140.1973
236.000000	87.647	139.7625
240.000000	87.646	139.0211
243.000000	87.628	138.4037
247.000000	87.580	137.5704
250.000000	87.531	136.9738
254.000000	87.453	136.2411
258.000000	87.367	135.5823
262.000000	87.277	134.9959
265.000000	87.209	134.5994
269.000000	87.118	134.1160
272.000000	87.051	133.7806
276.000000	86.962	133.3611
280.000000	86.873	132.9637
285.000000	86.764	132.4970
290.000000	86.658	132.0622
295.000000	86.556	131.6506
300.000000	86.456	131.2713
304.000000	86.377	131.0028
307.000000	86.319	130.8158
311.000000	86.242	130.5731
315.000000	86.167	130.3324
320.000000	86.075	130.0342
325.000000	85.985	129.7463
330.000000	85.895	129.4728
335.000000	85.806	129.2078
340.000000	85.719	128.9486
345.000000	85.632	128.7007
350.000000	85.548	128.4689
355.000000	85.465	128.2498
360.000000	85.383	128.0351
365.000000	85.302	127.8242
370.000000	85.221	127.6212
375.000000	85.143	127.4268
382.000000	85.035	127.1684
387.000000	84.961	126.9979
395.000000	84.845	126.7487
400.000000	84.773	126.5999
406.000000	84.685	126.4268
412.000000	84.599	126.2605
418.000000	84.514	126.1046
425.000000	84.418	125.9378
431.000000	84.338	125.8038
437.000000	84.260	125.6774
444.000000	84.173	125.5433
450.000000	84.099	125.4394
455.000000	84.038	125.3580
462.000000	83.953	125.2501
468.000000	83.881	125.1628
475.000000	83.799	125.0682
482.000000	83.719	124.9829
487.000000	83.663	124.9275
494.000000	83.586	124.8582
500.000000	83.522	124.8086
508.000000	83.439	124.7557
515.000000	83.368	124.7176
522.000000	83.299	124.6861
530.000000	83.222	124.6613
538.000000	83.147	124.6475
545.000000	83.083	124.6438
552.000000	83.021	124.6508
560.000000	82.952	124.6722
570.000000	82.871	124.7144
580.000000	82.792	124.7744
590.000000	82.714	124.8482
600.000000	82.640	124.9219
608.000000	82.584	124.9800
615.000000	82.537	125.0378
622.000000	82.492	125.1064
630.000000	82.444	125.1968
640.000000	82.387	125.3217
650.000000	82.334	125.4627
660.000000	82.284	125.6226
670.000000	82.236	125.7958
680.000000	82.192	125.9760
690.000000	82.153	126.1607
700.000000	82.117	126.3530
710.000000	82.084	126.5553
720.000000	82.055	126.7632
730.000000	82.030	126.9753
740.000000	82.008	127.1960
750.000000	81.991	127.4310
762.000000	81.976	127.7299
775.000000	81.967	128.0573
788.000000	81.966	128.3748
800.000000	81.971	128.6713
812.000000	81.983	128.9823
825.000000	82.003	129.3242
838.000000	82.029	129.6623
850.000000	82.060	129.9679
862.000000	82.097	130.2638
875.000000	82.144	130.5676
885.000000	82.183	130.7887
900.000000	82.250	131.1049
912.000000	82.309	131.3483
925.000000	82.379	131.6000
938.000000	82.455	131.8349
950.000000	82.531	132.0320
962.000000	82.613	132.2042
975.000000	82.707	132.3612
988.000000	82.806	132.4908
1000.000000	82.901	132.5860
1015.000000	83.023	132.6683
1030.000000	83.150	132.7102
1044.000000	83.273	132.7124
1060.000000	83.417	132.6676
1075.000000	83.555	132.5782
1090.000000	83.696	132.4472
1106.000000	83.847	132.2670
1120.000000	83.981	132.0778
1138.000000	84.155	131.7907
1150.000000	84.272	131.5692
1172.000000	84.486	131.1005
1180.000000	84.563	130.9118
1206.000000	84.816	130.2389
1220.000000	84.951	129.8401
1241.000000	85.153	129.1955
1250.000000	85.239	128.9037
1265.000000	85.384	128.3997
1280.000000	85.528	127.8758
1315.000000	85.862	126.5753
1320.000000	85.909	126.3807
1340.000000	86.097	125.5785
1360.000000	86.285	124.7374
1380.000000	86.472	123.8587
1400.000000	86.657	122.9447
1430.000000	86.931	121.5028
1450.000000	87.111	120.4918
1475.000000	87.333	119.1775
1500.000000	87.550	117.8112
1525.000000	87.762	116.3917
1550.000000	87.967	114.9174
1575.000000	88.167	113.3867
1600.000000	88.359	111.8006
1625.000000	88.543	110.1657
1650.000000	88.716	108.4885
1675.000000	88.880	106.7729
1700.000000	89.032	105.0257
1725.000000	89.172	103.2559
1750.000000	89.301	101.4689
1775.000000	89.418	99.6703
1800.000000	89.524	97.8686
1825.000000	89.618	96.0733
1850.000000	89.701	94.2922
1875.000000	89.773	92.5292
1900.000000	89.835	90.7879
1925.000000	89.889	89.0735
1950.000000	89.934	87.3928
1975.000000	89.971	85.7506
2000.000000	90.002	84.1483
2030.000000	90.031	82.2798
2060.000000	90.052	80.4753
2090.000000	90.067	78.7369
2120.000000	90.078	77.0650
2140.000000	90.084	75.9877
2180.000000	90.096	73.9187
2200.000000	90.104	72.9228
2240.000000	90.129	70.9848
2270.000000	90.158	69.5423
2300.000000	90.198	68.0603
2330.000000	90.245	66.4925
2360.000000	90.293	64.8050
2400.000000	90.343	62.3561
2430.000000	90.359	60.3954
2470.000000	90.345	57.6853
2500.000000	90.303	55.6372
2540.000000	90.206	52.9746
2580.000000	90.063	50.4941
2620.000000	89.883	48.3022
2650.000000	89.732	46.8942
2690.000000	89.523	45.3521
2720.000000	89.369	44.4347
2760.000000	89.180	43.4833
2800.000000	89.016	42.7713
2850.000000	88.852	42.0993
2900.000000	88.731	41.5519
2950.000000	88.647	41.0452
3000.000000	88.589	40.5379
3040.000000	88.555	40.1225
3070.000000	88.537	39.8063
3110.000000	88.519	39.3809
3150.000000	88.508	38.9537
3200.000000	88.504	38.4206
3250.000000	88.509	37.8872
3300.000000	88.524	37.3461
3350.000000	88.545	36.7878
3400.000000	88.573	36.2036
3450.000000	88.602	35.5883
3500.000000	88.632	34.9472
3550.000000	88.658	34.3032
3600.000000	88.680	33.6936
3650.000000	88.703	33.1538
3700.000000	88.733	32.6999
3750.000000	88.777	32.3197
3820.000000	88.872	31.8375
3870.000000	88.964	31.4625
3950.000000	89.147	30.6993
4000.000000	89.277	30.0826
4060.000000	89.445	29.1762
4120.000000	89.618	28.0656
4180.000000	89.792	26.7298
4250.000000	89.984	24.8698
4310.000000	90.130	23.0163
4370.000000	90.251	20.9407
4440.000000	90.349	18.2843
4500.000000	90.390	15.8592
4550.000000	90.390	13.7756
4620.000000	90.338	10.8366
4680.000000	90.244	8.3722
4750.000000	90.079	5.6581
4820.000000	89.861	3.2051
4870.000000	89.676	1.6518
4940.000000	89.384	-0.2036
5000.000000	89.112	-1.4748
5080.000000	88.727	-2.7005
5150.000000	88.379	-3.3404
5220.000000	88.031	-3.5909
5300.000000	87.639	-3.4214
5380.000000	87.260	-2.7808
5450.000000	86.943	-1.8199
5520.000000	86.645	-0.4377
5600.000000	86.348	1.7502
5700.000000	86.124	5.4860
5800.000000	86.231	9.8638
5900.000000	86.733	13.1665
6000.000000	87.332	13.4490
6080.000000	87.603	11.6953
6150.000000	87.629	9.8165
6220.000000	87.509	8.4240
6300.000000	87.288	7.7787
6400.000000	87.005	8.2173
6500.000000	86.791	9.5565
6600.000000	86.668	11.3836
6700.000000	86.635	13.4500
6800.000000	86.688	15.6073
6900.000000	86.826	17.7485
7000.000000	87.047	19.7750
7100.000000	87.351	21.5768
7200.000000	87.732	23.0243
7300.000000	88.178	23.9776
7400.000000	88.672	24.3001
7500.000000	89.188	23.8682
7620.000000	89.796	22.2191
7750.000000	90.371	18.9826
7880.000000	90.784	14.4213
8000.000000	90.975	9.4533
8120.000000	90.966	4.3064
8250.000000	90.749	-0.8529
8380.000000	90.364	-5.1034
8500.000000	89.914	-8.0258
8620.000000	89.423	-9.9879
8750.000000	88.896	-11.1705
8850.000000	88.518	-11.5551
9000.000000	88.022	-11.5499
9120.000000	87.696	-11.2529
9250.000000	87.410	-10.8169
9380.000000	87.188	-10.3918
9500.000000	87.035	-10.1229
9620.000000	86.920	-10.1123
9750.000000	86.807	-10.5477
9880.000000	86.652	-11.4247
10000.000000	86.432	-12.3608
10150.000000	86.041	-13.1951
10300.000000	85.551	-13.1751
10440.000000	85.060	-12.1384
10600.000000	84.545	-9.7570
10750.000000	84.183	-6.6218
10900.000000	83.993	-3.0140
11060.000000	83.998	0.8701
11200.000000	84.166	3.9248
11380.000000	84.551	6.9265
11500.000000	84.871	8.1599
11720.000000	85.469	8.5939
11800.000000	85.662	8.1696
12060.000000	86.088	5.0610
12200.000000	86.153	2.7017
12410.000000	86.022	-0.9328
12500.000000	85.890	-2.3369
12650.000000	85.589	-4.2949
12800.000000	85.214	-5.6827
13150.000000	84.207	-6.7172
13200.000000	84.061	-6.6506
13400.000000	83.501	-6.0068
13600.000000	82.988	-4.9844
13800.000000	82.523	-3.8216
14000.000000	82.093	-2.6285
14300.000000	81.485	-0.7792
14500.000000	81.097	0.6148
14750.000000	80.651	2.8404
15000.000000	80.367	5.8285
15250.000000	80.417	8.5798
15500.000000	80.695	9.5471
15750.000000	81.075	8.9360
16000.000000	81.620	6.8190
16250.000000	82.311	2.8122
16500.000000	83.265	-1.6264
16750.000000	84.894	-7.0161
17000.000000	86.699	-21.5760
17250.000000	87.589	-50.3314
17500.000000	86.997	-85.5993
17750.000000	84.950	-114.4261
18000.000000	81.784	-129.9301
18250.000000	77.847	-131.9196
18500.000000	73.395	-123.0712
18750.000000	68.627	-108.6324
19000.000000	63.774	-96.4647
19250.000000	59.210	-92.3855
19500.000000	55.313	-95.5750
19750.000000	52.156	-101.0887
20000.000000	49.954	-104.8178
