* Measurement data measured by REW V5.20.4
* Source: Trace Arithmetic result A * B
* Format: Trace Arithmetic result A * B
* Dated: 21-Feb-2022 17:42:28
* REW Settings:
*  C-weighting compensation: Off
*  Target level: 75.0 dB
* Note: Trace Arithmetic A times B A = HE-R10D L B = VSG to Crin
* Measurement: HE-R10D L VSG to Crin
* Smoothing: 1/24 octave
* Frequency Step: 1/48 octave
* Start Frequency: 20.000 Hz
*
* Freq(Hz)	SPL(dB)
20.000000	77.518
20.299999	77.714
20.600000	77.898
20.900000	78.067
21.200001	78.221
21.400000	78.314
21.799999	78.481
22.000000	78.556
22.400000	78.691
22.700001	78.782
23.000000	78.867
23.299999	78.945
23.600000	79.019
24.000000	79.111
24.299999	79.176
24.700001	79.260
25.000000	79.324
25.400000	79.412
25.799999	79.509
26.200001	79.616
26.500000	79.703
26.900000	79.830
27.200001	79.933
27.600000	80.077
28.000000	80.230
28.500000	80.424
29.000000	80.614
29.500000	80.791
30.000000	80.952
30.400000	81.069
30.700001	81.153
31.100000	81.260
31.500000	81.366
32.000000	81.498
32.500000	81.632
33.000000	81.768
33.500000	81.905
34.000000	82.042
34.500000	82.178
35.000000	82.310
35.500000	82.433
36.000000	82.542
36.500000	82.638
37.000000	82.724
37.500000	82.810
38.200001	82.935
38.700001	83.027
39.500000	83.159
40.000000	83.223
40.599998	83.276
41.200001	83.302
41.799999	83.302
42.500000	83.278
43.099998	83.247
43.700001	83.219
44.400002	83.196
45.000000	83.188
45.500000	83.187
46.200001	83.195
46.799999	83.211
47.500000	83.240
48.200001	83.279
48.700001	83.313
49.400002	83.364
50.000000	83.410
50.799999	83.465
51.500000	83.503
52.200001	83.531
53.000000	83.553
53.799999	83.567
54.500000	83.579
55.200001	83.594
56.000000	83.619
57.000000	83.659
58.000000	83.702
59.000000	83.741
60.000000	83.771
60.799999	83.789
61.500000	83.800
62.200001	83.806
63.000000	83.809
64.000000	83.809
65.000000	83.809
66.000000	83.813
67.000000	83.822
68.000000	83.840
69.000000	83.863
70.000000	83.892
71.000000	83.926
72.000000	83.965
73.000000	84.003
74.000000	84.037
75.000000	84.066
76.199997	84.093
77.500000	84.116
78.800003	84.131
80.000000	84.136
81.199997	84.134
82.500000	84.128
83.800003	84.122
85.000000	84.114
86.199997	84.102
87.500000	84.082
88.500000	84.061
90.000000	84.026
91.199997	83.997
92.500000	83.964
93.800003	83.931
95.000000	83.901
96.199997	83.872
97.500000	83.840
98.800003	83.806
100.000000	83.773
101.500000	83.726
103.000000	83.672
104.400002	83.617
106.000000	83.550
107.500000	83.484
109.000000	83.414
110.599998	83.333
112.000000	83.255
113.800003	83.146
115.000000	83.069
117.199997	82.925
118.000000	82.872
120.599998	82.702
122.000000	82.610
124.099998	82.471
125.000000	82.412
126.500000	82.314
128.000000	82.220
131.500000	82.015
132.000000	81.988
134.000000	81.880
136.000000	81.778
138.000000	81.679
140.000000	81.584
143.000000	81.446
145.000000	81.358
147.500000	81.252
150.000000	81.151
152.500000	81.053
155.000000	80.952
157.500000	80.845
160.000000	80.727
162.500000	80.600
165.000000	80.472
167.500000	80.356
170.000000	80.270
172.500000	80.242
175.000000	80.303
177.500000	80.457
180.000000	80.669
182.500000	80.880
185.000000	81.046
187.500000	81.147
190.000000	81.189
192.500000	81.188
195.000000	81.163
197.500000	81.135
200.000000	81.126
203.000000	81.175
206.000000	81.335
209.000000	81.637
212.000000	82.055
214.000000	82.358
218.000000	82.888
220.000000	83.070
224.000000	83.227
227.000000	83.180
230.000000	83.032
233.000000	82.823
236.000000	82.592
240.000000	82.300
243.000000	82.115
247.000000	81.924
250.000000	81.817
254.000000	81.713
258.000000	81.636
262.000000	81.571
265.000000	81.526
269.000000	81.467
272.000000	81.424
276.000000	81.365
280.000000	81.309
285.000000	81.243
290.000000	81.183
295.000000	81.126
300.000000	81.071
304.000000	81.022
307.000000	80.981
311.000000	80.921
315.000000	80.854
320.000000	80.765
325.000000	80.673
330.000000	80.587
335.000000	80.523
340.000000	80.509
345.000000	80.574
350.000000	80.731
355.000000	80.960
360.000000	81.211
365.000000	81.432
370.000000	81.588
375.000000	81.670
382.000000	81.672
387.000000	81.608
395.000000	81.433
400.000000	81.307
406.000000	81.180
412.000000	81.116
418.000000	81.131
425.000000	81.257
431.000000	81.481
437.000000	81.838
444.000000	82.388
450.000000	82.857
455.000000	83.151
462.000000	83.325
468.000000	83.253
475.000000	83.012
482.000000	82.751
487.000000	82.615
494.000000	82.521
500.000000	82.515
508.000000	82.578
515.000000	82.678
522.000000	82.803
530.000000	82.954
538.000000	83.084
545.000000	83.164
552.000000	83.210
560.000000	83.230
570.000000	83.231
580.000000	83.231
590.000000	83.245
600.000000	83.273
608.000000	83.299
615.000000	83.317
622.000000	83.333
630.000000	83.354
640.000000	83.402
650.000000	83.478
660.000000	83.560
670.000000	83.622
680.000000	83.700
690.000000	83.875
700.000000	84.148
710.000000	84.361
720.000000	84.329
730.000000	84.014
740.000000	83.561
750.000000	83.185
762.000000	82.994
775.000000	83.022
788.000000	83.112
800.000000	83.166
812.000000	83.182
825.000000	83.177
838.000000	83.173
850.000000	83.174
862.000000	83.159
875.000000	83.074
885.000000	82.934
900.000000	82.612
912.000000	82.308
925.000000	81.987
938.000000	81.696
950.000000	81.442
962.000000	81.194
975.000000	80.948
988.000000	80.781
1000.000000	80.755
1015.000000	80.929
1030.000000	81.264
1044.000000	81.612
1060.000000	81.951
1075.000000	82.174
1090.000000	82.302
1106.000000	82.342
1120.000000	82.301
1138.000000	82.155
1150.000000	82.011
1172.000000	81.691
1180.000000	81.568
1206.000000	81.198
1220.000000	81.053
1241.000000	80.933
1250.000000	80.907
1265.000000	80.876
1280.000000	80.836
1315.000000	80.646
1320.000000	80.607
1340.000000	80.423
1360.000000	80.194
1380.000000	79.939
1400.000000	79.685
1430.000000	79.362
1450.000000	79.196
1475.000000	79.038
1500.000000	78.939
1525.000000	78.936
1550.000000	79.031
1575.000000	79.117
1600.000000	79.034
1625.000000	78.723
1650.000000	78.302
1675.000000	77.959
1700.000000	77.784
1725.000000	77.709
1750.000000	77.598
1775.000000	77.361
1800.000000	77.002
1825.000000	76.611
1850.000000	76.303
1875.000000	76.149
1900.000000	76.153
1925.000000	76.281
1950.000000	76.493
1975.000000	76.758
2000.000000	77.054
2030.000000	77.423
2060.000000	77.780
2090.000000	78.095
2120.000000	78.346
2140.000000	78.470
2180.000000	78.596
2200.000000	78.596
2240.000000	78.492
2270.000000	78.368
2300.000000	78.270
2330.000000	78.256
2360.000000	78.344
2400.000000	78.565
2430.000000	78.753
2470.000000	79.001
2500.000000	79.189
2540.000000	79.435
2580.000000	79.660
2620.000000	79.852
2650.000000	79.980
2690.000000	80.137
2720.000000	80.242
2760.000000	80.354
2800.000000	80.458
2850.000000	80.764
2900.000000	81.577
2950.000000	82.984
3000.000000	84.676
3040.000000	85.943
3070.000000	86.742
3110.000000	87.550
3150.000000	88.066
3200.000000	88.357
3250.000000	88.356
3300.000000	88.162
3350.000000	87.854
3400.000000	87.486
3450.000000	87.097
3500.000000	86.721
3550.000000	86.375
3600.000000	86.060
3650.000000	85.777
3700.000000	85.543
3750.000000	85.380
3820.000000	85.291
3870.000000	85.331
3950.000000	85.525
4000.000000	85.646
4060.000000	85.714
4120.000000	85.674
4180.000000	85.531
4250.000000	85.246
4310.000000	84.902
4370.000000	84.466
4440.000000	83.875
4500.000000	83.359
4550.000000	82.964
4620.000000	82.498
4680.000000	82.174
4750.000000	81.822
4820.000000	81.413
4870.000000	81.051
4940.000000	80.446
5000.000000	79.887
5080.000000	79.237
5150.000000	78.918
5220.000000	78.934
5300.000000	79.394
5380.000000	80.282
5450.000000	81.310
5520.000000	82.423
5600.000000	83.601
5700.000000	84.724
5800.000000	85.423
5900.000000	85.798
6000.000000	85.917
6080.000000	85.826
6150.000000	85.621
6220.000000	85.341
6300.000000	85.023
6400.000000	84.785
6500.000000	84.779
6600.000000	84.859
6700.000000	84.818
6800.000000	84.542
6900.000000	84.028
7000.000000	83.352
7100.000000	82.635
7200.000000	82.037
7300.000000	81.724
7400.000000	81.801
7500.000000	82.257
7620.000000	83.108
7750.000000	84.030
7880.000000	84.623
8000.000000	84.736
8120.000000	84.384
8250.000000	83.470
8380.000000	82.077
8500.000000	80.644
8620.000000	79.598
8750.000000	79.292
8850.000000	79.422
9000.000000	79.593
9120.000000	79.522
9250.000000	79.263
9380.000000	78.829
9500.000000	78.232
9620.000000	77.416
9750.000000	76.302
9880.000000	74.993
10000.000000	73.662
10150.000000	72.039
10300.000000	71.094
10440.000000	71.367
10600.000000	72.571
10750.000000	73.786
10900.000000	74.772
11060.000000	75.564
11200.000000	76.102
11380.000000	76.621
11500.000000	76.841
11720.000000	76.922
11800.000000	76.851
12060.000000	76.309
12200.000000	75.821
12410.000000	74.843
12500.000000	74.408
12650.000000	73.900
12800.000000	73.864
13150.000000	74.378
13200.000000	74.342
13400.000000	73.740
13600.000000	72.471
13800.000000	70.799
14000.000000	69.274
14300.000000	68.388
14500.000000	68.190
14750.000000	67.328
15000.000000	65.820
15250.000000	64.919
15500.000000	65.958
15750.000000	68.343
16000.000000	70.891
16250.000000	73.010
16500.000000	74.555
16750.000000	75.595
17000.000000	76.203
17250.000000	76.329
17500.000000	75.882
17750.000000	74.865
18000.000000	73.407
18250.000000	71.699
18500.000000	69.911
18750.000000	68.191
19000.000000	66.771
19250.000000	66.024
19500.000000	66.117
19750.000000	66.645
