* Measurement data measured by REW V5.20.4
* Source: Trace Arithmetic result Merge B to A
* Format: Trace Arithmetic result Merge B to A
* Dated: 26-Jul-2023 09:50:49
* REW Settings:
*  C-weighting compensation: Off
*  Target level: 75.0 dB
* Note: 
* Measurement: Starfield 2 bass R
* Smoothing: 1/24 octave
* Frequency Step: 1/48 octave
* Start Frequency: 20.000 Hz
*
* Freq(Hz)	SPL(dB)
20.000000	82.612
20.299999	82.575
20.600000	82.537
20.900000	82.500
21.200001	82.462
21.400000	82.438
21.799999	82.389
22.000000	82.366
22.400000	82.321
22.700001	82.288
23.000000	82.256
23.299999	82.225
23.600000	82.193
24.000000	82.147
24.299999	82.111
24.700001	82.058
25.000000	82.017
25.400000	81.959
25.799999	81.901
26.200001	81.843
26.500000	81.800
26.900000	81.743
27.200001	81.701
27.600000	81.647
28.000000	81.593
28.500000	81.526
29.000000	81.458
29.500000	81.388
30.000000	81.317
30.400000	81.259
30.700001	81.216
31.100000	81.160
31.500000	81.104
32.000000	81.035
32.500000	80.966
33.000000	80.898
33.500000	80.831
34.000000	80.767
34.500000	80.705
35.000000	80.645
35.500000	80.587
36.000000	80.530
36.500000	80.473
37.000000	80.414
37.500000	80.355
38.200001	80.270
38.700001	80.211
39.500000	80.120
40.000000	80.064
40.599998	79.998
41.200001	79.932
41.799999	79.864
42.500000	79.782
43.099998	79.711
43.700001	79.640
44.400002	79.558
45.000000	79.489
45.500000	79.435
46.200001	79.361
46.799999	79.299
47.500000	79.227
48.200001	79.155
48.700001	79.102
49.400002	79.027
50.000000	78.962
50.799999	78.876
51.500000	78.799
52.200001	78.724
53.000000	78.639
53.799999	78.557
54.500000	78.486
55.200001	78.417
56.000000	78.339
57.000000	78.242
58.000000	78.145
59.000000	78.047
60.000000	77.949
60.799999	77.871
61.500000	77.802
62.200001	77.733
63.000000	77.654
64.000000	77.555
65.000000	77.459
66.000000	77.364
67.000000	77.272
68.000000	77.182
69.000000	77.094
70.000000	77.007
71.000000	76.922
72.000000	76.837
73.000000	76.753
74.000000	76.669
75.000000	76.587
76.199997	76.489
77.500000	76.385
78.800003	76.283
80.000000	76.190
81.199997	76.098
82.500000	76.000
83.800003	75.904
85.000000	75.816
86.199997	75.730
87.500000	75.638
88.500000	75.569
90.000000	75.466
91.199997	75.385
92.500000	75.297
93.800003	75.211
95.000000	75.131
96.199997	75.053
97.500000	74.968
98.800003	74.885
100.000000	74.810
101.500000	74.717
103.000000	74.626
104.400002	74.541
106.000000	74.445
107.500000	74.356
109.000000	74.266
110.599998	74.172
112.000000	74.090
113.800003	73.986
115.000000	73.918
117.199997	73.796
118.000000	73.753
120.599998	73.613
122.000000	73.540
124.099998	73.431
125.000000	73.385
126.500000	73.310
128.000000	73.235
131.500000	73.065
132.000000	73.042
134.000000	72.948
136.000000	72.856
138.000000	72.766
140.000000	72.678
143.000000	72.547
145.000000	72.462
147.500000	72.357
150.000000	72.254
152.500000	72.153
155.000000	72.055
157.500000	71.958
160.000000	71.863
162.500000	71.769
165.000000	71.677
167.500000	71.586
170.000000	71.497
172.500000	71.411
175.000000	71.327
177.500000	71.247
180.000000	71.172
182.500000	71.102
185.000000	71.038
187.500000	70.979
190.000000	70.924
192.500000	70.871
195.000000	70.819
197.500000	70.766
200.000000	70.710
203.000000	70.640
206.000000	70.564
209.000000	70.485
212.000000	70.404
214.000000	70.349
218.000000	70.240
220.000000	70.186
224.000000	70.079
227.000000	70.000
230.000000	69.923
233.000000	69.847
236.000000	69.773
240.000000	69.677
243.000000	69.606
247.000000	69.514
250.000000	69.448
254.000000	69.361
258.000000	69.278
262.000000	69.197
265.000000	69.139
269.000000	69.062
272.000000	69.007
276.000000	68.935
280.000000	68.865
285.000000	68.782
290.000000	68.704
295.000000	68.630
300.000000	68.561
304.000000	68.509
307.000000	68.471
311.000000	68.421
315.000000	68.373
320.000000	68.313
325.000000	68.253
330.000000	68.194
335.000000	68.135
340.000000	68.077
345.000000	68.021
350.000000	67.965
355.000000	67.911
360.000000	67.859
365.000000	67.808
370.000000	67.758
375.000000	67.709
382.000000	67.642
387.000000	67.596
395.000000	67.523
400.000000	67.480
406.000000	67.430
412.000000	67.382
418.000000	67.337
425.000000	67.285
431.000000	67.243
437.000000	67.200
444.000000	67.151
450.000000	67.110
455.000000	67.076
462.000000	67.030
468.000000	66.993
475.000000	66.950
482.000000	66.910
487.000000	66.882
494.000000	66.845
500.000000	66.814
508.000000	66.774
515.000000	66.740
522.000000	66.707
530.000000	66.671
538.000000	66.637
545.000000	66.609
552.000000	66.583
560.000000	66.555
570.000000	66.523
580.000000	66.493
590.000000	66.467
600.000000	66.443
608.000000	66.426
615.000000	66.412
622.000000	66.400
630.000000	66.388
640.000000	66.374
650.000000	66.364
660.000000	66.356
670.000000	66.352
680.000000	66.351
690.000000	66.351
700.000000	66.354
710.000000	66.358
720.000000	66.365
730.000000	66.373
740.000000	66.385
750.000000	66.400
762.000000	66.421
775.000000	66.449
788.000000	66.481
800.000000	66.516
812.000000	66.554
825.000000	66.602
838.000000	66.655
850.000000	66.709
862.000000	66.767
875.000000	66.835
885.000000	66.891
900.000000	66.980
912.000000	67.056
925.000000	67.143
938.000000	67.234
950.000000	67.321
962.000000	67.412
975.000000	67.514
988.000000	67.619
1000.000000	67.718
1015.000000	67.846
1030.000000	67.977
1044.000000	68.102
1060.000000	68.245
1075.000000	68.380
1090.000000	68.515
1106.000000	68.657
1120.000000	68.780
1138.000000	68.936
1150.000000	69.039
1172.000000	69.222
1180.000000	69.287
1206.000000	69.493
1220.000000	69.600
1241.000000	69.756
1250.000000	69.821
1265.000000	69.928
1280.000000	70.032
1315.000000	70.265
1320.000000	70.298
1340.000000	70.424
1360.000000	70.548
1380.000000	70.669
1400.000000	70.787
1430.000000	70.961
1450.000000	71.076
1475.000000	71.217
1500.000000	71.357
1525.000000	71.497
1550.000000	71.636
1575.000000	71.775
1600.000000	71.915
1625.000000	72.055
1650.000000	72.195
1675.000000	72.337
1700.000000	72.480
1725.000000	72.625
1750.000000	72.772
1775.000000	72.920
1800.000000	73.070
1825.000000	73.221
1850.000000	73.374
1875.000000	73.529
1900.000000	73.686
1925.000000	73.843
1950.000000	74.003
1975.000000	74.163
2000.000000	74.325
2030.000000	74.520
2060.000000	74.716
2090.000000	74.913
2120.000000	75.110
2140.000000	75.242
2180.000000	75.504
2200.000000	75.635
2240.000000	75.895
2270.000000	76.087
2300.000000	76.277
2330.000000	76.462
2360.000000	76.643
2400.000000	76.877
2430.000000	77.044
2470.000000	77.257
2500.000000	77.408
2540.000000	77.595
2580.000000	77.767
2620.000000	77.921
2650.000000	78.025
2690.000000	78.148
2720.000000	78.229
2760.000000	78.320
2800.000000	78.393
2850.000000	78.459
2900.000000	78.498
2950.000000	78.513
3000.000000	78.506
3040.000000	78.486
3070.000000	78.463
3110.000000	78.424
3150.000000	78.377
3200.000000	78.309
3250.000000	78.232
3300.000000	78.150
3350.000000	78.065
3400.000000	77.979
3450.000000	77.895
3500.000000	77.813
3550.000000	77.736
3600.000000	77.663
3650.000000	77.597
3700.000000	77.537
3750.000000	77.483
3820.000000	77.419
3870.000000	77.383
3950.000000	77.341
4000.000000	77.325
4060.000000	77.313
4120.000000	77.307
4180.000000	77.305
4250.000000	77.301
4310.000000	77.294
4370.000000	77.280
4440.000000	77.251
4500.000000	77.214
4550.000000	77.176
4620.000000	77.120
4680.000000	77.073
4750.000000	77.005
4820.000000	76.912
4870.000000	76.831
4940.000000	76.694
5000.000000	76.556
5080.000000	76.344
5150.000000	76.134
5220.000000	75.906
5300.000000	75.627
5380.000000	75.337
5450.000000	75.078
5520.000000	74.819
5600.000000	74.527
5700.000000	74.173
5800.000000	73.835
5900.000000	73.518
6000.000000	73.229
6080.000000	73.021
6150.000000	72.859
6220.000000	72.717
6300.000000	72.582
6400.000000	72.460
6500.000000	72.394
6600.000000	72.391
6700.000000	72.455
6800.000000	72.589
6900.000000	72.795
7000.000000	73.070
7100.000000	73.407
7200.000000	73.792
7300.000000	74.210
7400.000000	74.637
7500.000000	75.050
7620.000000	75.494
7750.000000	75.869
7880.000000	76.098
8000.000000	76.159
8120.000000	76.066
8250.000000	75.795
8380.000000	75.356
8500.000000	74.817
8620.000000	74.170
8750.000000	73.371
8850.000000	72.705
9000.000000	71.655
9120.000000	70.801
9250.000000	69.890
9380.000000	69.018
9500.000000	68.269
9620.000000	67.588
9750.000000	66.938
9880.000000	66.389
10000.000000	65.976
10150.000000	65.592
10300.000000	65.354
10440.000000	65.263
10600.000000	65.308
10750.000000	65.483
10900.000000	65.767
11060.000000	66.162
11200.000000	66.554
11380.000000	67.079
11500.000000	67.418
11720.000000	67.990
11800.000000	68.183
12060.000000	68.791
12200.000000	69.123
12410.000000	69.601
12500.000000	69.776
12650.000000	69.994
12800.000000	70.093
13150.000000	69.806
13200.000000	69.711
13400.000000	69.225
13600.000000	68.624
13800.000000	67.982
14000.000000	67.374
14300.000000	66.675
14500.000000	66.418
14750.000000	66.352
15000.000000	66.516
15250.000000	66.804
15500.000000	67.098
15750.000000	67.298
16000.000000	67.336
16250.000000	67.183
16500.000000	66.839
16750.000000	66.329
17000.000000	65.687
17250.000000	64.947
17500.000000	64.130
17750.000000	63.240
18000.000000	62.266
18250.000000	61.194
18500.000000	60.010
18750.000000	58.713
19000.000000	57.312
19250.000000	55.836
19500.000000	54.348
19750.000000	53.012
