* Measurement data measured by REW V5.20.4
* Source: Trace Arithmetic result Merge B to A
* Format: Trace Arithmetic result Merge B to A
* Dated: 12-Jun-2023 03:40:59
* REW Settings:
*  C-weighting compensation: Off
*  Target level: 75.0 dB
* Note: 
* Measurement: Sivga Luan R
* Smoothing: 1/24 octave
* Frequency Step: 1/48 octave
* Start Frequency: 20.000 Hz
*
* Freq(Hz)	SPL(dB)
20.000000	71.298
20.299999	71.375
20.600000	71.449
20.900000	71.520
21.200001	71.589
21.400000	71.634
21.799999	71.720
22.000000	71.761
22.400000	71.841
22.700001	71.897
23.000000	71.951
23.299999	72.003
23.600000	72.053
24.000000	72.116
24.299999	72.163
24.700001	72.224
25.000000	72.269
25.400000	72.329
25.799999	72.387
26.200001	72.444
26.500000	72.485
26.900000	72.540
27.200001	72.581
27.600000	72.635
28.000000	72.689
28.500000	72.757
29.000000	72.823
29.500000	72.889
30.000000	72.953
30.400000	73.003
30.700001	73.041
31.100000	73.090
31.500000	73.136
32.000000	73.191
32.500000	73.241
33.000000	73.285
33.500000	73.325
34.000000	73.362
34.500000	73.396
35.000000	73.429
35.500000	73.461
36.000000	73.491
36.500000	73.518
37.000000	73.542
37.500000	73.563
38.200001	73.590
38.700001	73.608
39.500000	73.637
40.000000	73.656
40.599998	73.678
41.200001	73.701
41.799999	73.723
42.500000	73.748
43.099998	73.767
43.700001	73.785
44.400002	73.802
45.000000	73.815
45.500000	73.826
46.200001	73.840
46.799999	73.853
47.500000	73.869
48.200001	73.888
48.700001	73.902
49.400002	73.924
50.000000	73.945
50.799999	73.976
51.500000	74.004
52.200001	74.034
53.000000	74.068
53.799999	74.101
54.500000	74.127
55.200001	74.152
56.000000	74.177
57.000000	74.204
58.000000	74.228
59.000000	74.248
60.000000	74.266
60.799999	74.279
61.500000	74.291
62.200001	74.303
63.000000	74.318
64.000000	74.339
65.000000	74.362
66.000000	74.388
67.000000	74.416
68.000000	74.447
69.000000	74.480
70.000000	74.515
71.000000	74.551
72.000000	74.587
73.000000	74.624
74.000000	74.661
75.000000	74.699
76.199997	74.744
77.500000	74.793
78.800003	74.840
80.000000	74.883
81.199997	74.923
82.500000	74.963
83.800003	75.000
85.000000	75.031
86.199997	75.058
87.500000	75.085
88.500000	75.103
90.000000	75.129
91.199997	75.146
92.500000	75.163
93.800003	75.177
95.000000	75.189
96.199997	75.198
97.500000	75.208
98.800003	75.217
100.000000	75.225
101.500000	75.237
103.000000	75.248
104.400002	75.258
106.000000	75.267
107.500000	75.274
109.000000	75.278
110.599998	75.279
112.000000	75.278
113.800003	75.272
115.000000	75.266
117.199997	75.253
118.000000	75.247
120.599998	75.226
122.000000	75.213
124.099998	75.193
125.000000	75.185
126.500000	75.170
128.000000	75.156
131.500000	75.122
132.000000	75.117
134.000000	75.097
136.000000	75.077
138.000000	75.055
140.000000	75.032
143.000000	74.996
145.000000	74.971
147.500000	74.941
150.000000	74.912
152.500000	74.884
155.000000	74.858
157.500000	74.834
160.000000	74.811
162.500000	74.790
165.000000	74.770
167.500000	74.750
170.000000	74.731
172.500000	74.713
175.000000	74.695
177.500000	74.678
180.000000	74.661
182.500000	74.644
185.000000	74.626
187.500000	74.608
190.000000	74.590
192.500000	74.570
195.000000	74.549
197.500000	74.526
200.000000	74.502
203.000000	74.471
206.000000	74.439
209.000000	74.407
212.000000	74.376
214.000000	74.357
218.000000	74.326
220.000000	74.313
224.000000	74.293
227.000000	74.282
230.000000	74.274
233.000000	74.267
236.000000	74.262
240.000000	74.257
243.000000	74.255
247.000000	74.253
250.000000	74.255
254.000000	74.259
258.000000	74.268
262.000000	74.281
265.000000	74.292
269.000000	74.309
272.000000	74.322
276.000000	74.339
280.000000	74.353
285.000000	74.367
290.000000	74.376
295.000000	74.380
300.000000	74.380
304.000000	74.377
307.000000	74.374
311.000000	74.368
315.000000	74.361
320.000000	74.351
325.000000	74.340
330.000000	74.328
335.000000	74.317
340.000000	74.305
345.000000	74.294
350.000000	74.283
355.000000	74.271
360.000000	74.259
365.000000	74.247
370.000000	74.235
375.000000	74.222
382.000000	74.203
387.000000	74.189
395.000000	74.166
400.000000	74.150
406.000000	74.130
412.000000	74.108
418.000000	74.085
425.000000	74.057
431.000000	74.032
437.000000	74.007
444.000000	73.976
450.000000	73.949
455.000000	73.927
462.000000	73.894
468.000000	73.867
475.000000	73.834
482.000000	73.802
487.000000	73.779
494.000000	73.748
500.000000	73.722
508.000000	73.688
515.000000	73.659
522.000000	73.631
530.000000	73.600
538.000000	73.570
545.000000	73.544
552.000000	73.518
560.000000	73.489
570.000000	73.455
580.000000	73.422
590.000000	73.391
600.000000	73.362
608.000000	73.340
615.000000	73.321
622.000000	73.304
630.000000	73.285
640.000000	73.262
650.000000	73.241
660.000000	73.221
670.000000	73.201
680.000000	73.182
690.000000	73.162
700.000000	73.141
710.000000	73.118
720.000000	73.094
730.000000	73.066
740.000000	73.036
750.000000	73.002
762.000000	72.958
775.000000	72.906
788.000000	72.853
800.000000	72.803
812.000000	72.752
825.000000	72.696
838.000000	72.638
850.000000	72.585
862.000000	72.536
875.000000	72.491
885.000000	72.462
900.000000	72.432
912.000000	72.418
925.000000	72.410
938.000000	72.407
950.000000	72.404
962.000000	72.400
975.000000	72.394
988.000000	72.386
1000.000000	72.378
1015.000000	72.367
1030.000000	72.355
1044.000000	72.342
1060.000000	72.328
1075.000000	72.313
1090.000000	72.297
1106.000000	72.281
1120.000000	72.268
1138.000000	72.251
1150.000000	72.240
1172.000000	72.217
1180.000000	72.209
1206.000000	72.178
1220.000000	72.157
1241.000000	72.118
1250.000000	72.097
1265.000000	72.055
1280.000000	72.006
1315.000000	71.868
1320.000000	71.849
1340.000000	71.780
1360.000000	71.740
1380.000000	71.741
1400.000000	71.785
1430.000000	71.917
1450.000000	72.034
1475.000000	72.193
1500.000000	72.356
1525.000000	72.517
1550.000000	72.675
1575.000000	72.829
1600.000000	72.982
1625.000000	73.134
1650.000000	73.290
1675.000000	73.450
1700.000000	73.617
1725.000000	73.790
1750.000000	73.967
1775.000000	74.148
1800.000000	74.334
1825.000000	74.525
1850.000000	74.724
1875.000000	74.932
1900.000000	75.150
1925.000000	75.379
1950.000000	75.617
1975.000000	75.864
2000.000000	76.117
2030.000000	76.427
2060.000000	76.743
2090.000000	77.064
2120.000000	77.390
2140.000000	77.610
2180.000000	78.058
2200.000000	78.285
2240.000000	78.740
2270.000000	79.069
2300.000000	79.343
2330.000000	79.545
2360.000000	79.719
2400.000000	79.933
2430.000000	80.064
2470.000000	80.205
2500.000000	80.302
2540.000000	80.427
2580.000000	80.519
2620.000000	80.553
2650.000000	80.541
2690.000000	80.481
2720.000000	80.407
2760.000000	80.266
2800.000000	80.105
2850.000000	80.006
2900.000000	80.219
2950.000000	80.745
3000.000000	81.354
3040.000000	81.747
3070.000000	81.950
3110.000000	82.102
3150.000000	82.155
3200.000000	82.151
3250.000000	82.115
3300.000000	82.034
3350.000000	81.870
3400.000000	81.601
3450.000000	81.235
3500.000000	80.820
3550.000000	80.433
3600.000000	80.164
3650.000000	80.091
3700.000000	80.242
3750.000000	80.567
3820.000000	81.116
3870.000000	81.451
3950.000000	81.779
4000.000000	81.845
4060.000000	81.792
4120.000000	81.610
4180.000000	81.334
4250.000000	80.950
4310.000000	80.606
4370.000000	80.261
4440.000000	79.853
4500.000000	79.479
4550.000000	79.129
4620.000000	78.548
4680.000000	77.941
4750.000000	77.095
4820.000000	76.105
4870.000000	75.329
4940.000000	74.192
5000.000000	73.225
5080.000000	72.060
5150.000000	71.269
5220.000000	70.792
5300.000000	70.716
5380.000000	71.145
5450.000000	71.836
5520.000000	72.684
5600.000000	73.694
5700.000000	74.862
5800.000000	75.840
5900.000000	76.600
6000.000000	77.159
6080.000000	77.488
6150.000000	77.706
6220.000000	77.871
6300.000000	78.008
6400.000000	78.100
6500.000000	78.078
6600.000000	77.892
6700.000000	77.513
6800.000000	76.954
6900.000000	76.273
7000.000000	75.556
7100.000000	74.898
7200.000000	74.395
7300.000000	74.129
7400.000000	74.144
7500.000000	74.425
7620.000000	74.979
7750.000000	75.592
7880.000000	76.004
8000.000000	76.131
8120.000000	76.013
8250.000000	75.620
8380.000000	74.970
8500.000000	74.176
8620.000000	73.247
8750.000000	72.143
8850.000000	71.267
9000.000000	70.050
9120.000000	69.377
9250.000000	69.174
9380.000000	69.523
9500.000000	70.159
9620.000000	70.904
9750.000000	71.672
9880.000000	72.285
10000.000000	72.657
10150.000000	72.858
10300.000000	72.817
10440.000000	72.620
10600.000000	72.242
10750.000000	71.729
10900.000000	71.047
11060.000000	70.155
11200.000000	69.304
11380.000000	68.280
11500.000000	67.758
11720.000000	67.428
11800.000000	67.564
12060.000000	68.892
12200.000000	69.927
12410.000000	71.405
12500.000000	71.914
12650.000000	72.529
12800.000000	72.838
13150.000000	72.691
13200.000000	72.629
13400.000000	72.477
13600.000000	72.630
13800.000000	73.112
14000.000000	73.770
14300.000000	74.648
14500.000000	74.948
14750.000000	74.898
15000.000000	74.421
15250.000000	73.733
15500.000000	73.265
15750.000000	73.385
16000.000000	73.853
16250.000000	74.109
16500.000000	73.859
16750.000000	73.114
17000.000000	71.999
17250.000000	70.614
17500.000000	69.013
17750.000000	67.242
18000.000000	65.372
18250.000000	63.499
18500.000000	61.732
18750.000000	60.175
19000.000000	58.924
19250.000000	58.091
19500.000000	57.705
19750.000000	57.615
