* Measurement data measured by REW V5.20.13
* Source: USB Sound Device        , MICROPHONE, R, volume: 0.222
* Format: 256k Log Swept Sine, 1 sweep at -6.0 dBFS with no timing reference
* Dated: Aug 23, 2023 9:57:57 AM
* REW Settings:
*  C-weighting compensation: Off
*  Target level: 75.0 dB
* Note: ; 
* Measurement: mest SILICON L
* Smoothing: None
* Frequency Step: 1/48 octave
* Start Frequency: 20.000 Hz
*
* Freq(Hz)	SPL(dB)	Phase(degrees)
20.000000	89.741	177.4579
20.299999	89.734	177.2484
20.600000	89.721	177.0450
20.900000	89.701	176.8315
21.200001	89.675	176.5932
21.400000	89.653	176.4194
21.799999	89.603	176.0415
22.000000	89.576	175.8385
22.400000	89.520	175.4002
22.700001	89.480	175.0295
23.000000	89.442	174.6103
23.299999	89.405	174.1460
23.600000	89.369	173.6522
24.000000	89.324	172.9794
24.299999	89.296	172.4817
24.700001	89.269	171.8290
25.000000	89.258	171.3408
25.400000	89.250	170.6909
25.799999	89.247	170.0651
26.200001	89.246	169.4954
26.500000	89.248	169.1123
26.900000	89.252	168.6529
27.200001	89.255	168.3377
27.600000	89.256	167.9524
28.000000	89.251	167.6135
28.500000	89.235	167.2552
29.000000	89.213	166.9349
29.500000	89.182	166.6132
30.000000	89.140	166.2800
30.400000	89.102	166.0030
30.700001	89.073	165.7808
31.100000	89.033	165.4509
31.500000	88.992	165.0804
32.000000	88.938	164.5839
32.500000	88.885	164.0813
33.000000	88.842	163.5726
33.500000	88.806	163.0427
34.000000	88.776	162.5046
34.500000	88.747	161.9926
35.000000	88.723	161.5230
35.500000	88.702	161.0898
36.000000	88.681	160.6874
36.500000	88.658	160.3174
37.000000	88.631	159.9786
37.500000	88.601	159.6652
38.200001	88.555	159.2518
38.700001	88.519	158.9513
39.500000	88.455	158.4268
40.000000	88.410	158.0925
40.599998	88.357	157.7028
41.200001	88.309	157.3001
41.799999	88.262	156.8752
42.500000	88.209	156.3923
43.099998	88.168	155.9962
43.700001	88.128	155.5938
44.400002	88.079	155.1380
45.000000	88.034	154.7886
45.500000	87.999	154.5164
46.200001	87.950	154.1349
46.799999	87.907	153.8031
47.500000	87.856	153.4254
48.200001	87.806	153.0607
48.700001	87.772	152.7928
49.400002	87.725	152.3923
50.000000	87.678	152.0610
50.799999	87.616	151.6935
51.500000	87.568	151.3857
52.200001	87.517	151.0482
53.000000	87.450	150.7091
53.799999	87.392	150.4014
54.500000	87.343	150.0481
55.200001	87.282	149.6921
56.000000	87.220	149.3997
57.000000	87.172	148.8563
58.000000	87.079	148.2462
59.000000	87.001	148.0510
60.000000	86.961	147.6937
60.799999	86.904	147.3789
61.500000	86.855	147.1800
62.200001	86.807	146.9531
63.000000	86.746	146.6834
64.000000	86.673	146.3566
65.000000	86.602	145.9882
66.000000	86.533	145.6305
67.000000	86.466	145.2717
68.000000	86.400	144.9643
69.000000	86.338	144.6656
70.000000	86.269	144.3859
71.000000	86.202	144.1239
72.000000	86.130	143.8440
73.000000	86.057	143.5912
74.000000	85.991	143.3478
75.000000	85.930	143.0698
76.199997	85.849	142.7221
77.500000	85.763	142.4387
78.800003	85.681	142.1585
80.000000	85.611	141.9087
81.199997	85.539	141.6451
82.500000	85.461	141.3202
83.800003	85.363	141.0979
85.000000	85.303	140.9478
86.199997	85.232	140.6349
87.500000	85.147	140.3840
88.500000	85.091	140.2026
90.000000	84.998	139.8794
91.199997	84.930	139.7291
92.500000	84.845	139.5208
93.800003	84.775	139.3676
95.000000	84.692	139.1584
96.199997	84.620	138.9726
97.500000	84.540	138.8279
98.800003	84.471	138.5516
100.000000	84.396	138.4700
101.500000	84.304	138.2125
103.000000	84.217	138.1478
104.400002	84.122	137.9570
106.000000	84.024	137.7829
107.500000	83.928	137.6682
109.000000	83.835	137.5071
110.599998	83.724	137.4570
112.000000	83.629	137.4087
113.800003	83.490	137.4341
115.000000	83.411	137.6093
117.199997	83.208	137.8755
118.000000	83.155	138.1321
120.599998	82.976	139.3577
122.000000	82.906	140.2292
124.099998	83.000	141.8605
125.000000	83.072	142.1690
126.500000	83.240	142.6317
128.000000	83.383	141.8491
131.500000	83.432	140.0634
132.000000	83.427	139.8923
134.000000	83.402	139.0866
136.000000	83.262	138.3389
138.000000	83.227	137.8294
140.000000	83.129	137.5661
143.000000	83.011	137.1161
145.000000	82.937	136.9677
147.500000	82.860	136.6545
150.000000	82.753	136.4843
152.500000	82.676	136.3408
155.000000	82.600	136.1447
157.500000	82.534	135.9547
160.000000	82.460	135.8116
162.500000	82.376	135.6675
165.000000	82.304	135.4756
167.500000	82.231	135.3407
170.000000	82.166	135.2238
172.500000	82.095	135.0705
175.000000	82.027	135.0638
177.500000	81.957	134.9581
180.000000	81.898	134.9480
182.500000	81.829	134.8670
185.000000	81.769	134.8070
187.500000	81.699	134.7356
190.000000	81.644	134.5972
192.500000	81.593	134.6200
195.000000	81.541	134.5706
197.500000	81.478	134.5442
200.000000	81.431	134.5216
203.000000	81.365	134.4639
206.000000	81.318	134.4975
209.000000	81.260	134.4689
212.000000	81.207	134.4762
214.000000	81.169	134.4432
218.000000	81.102	134.4010
220.000000	81.072	134.3964
224.000000	81.017	134.4016
227.000000	80.982	134.4008
230.000000	80.935	134.3240
233.000000	80.893	134.3082
236.000000	80.858	134.3105
240.000000	80.804	134.2793
243.000000	80.765	134.2639
247.000000	80.724	134.2065
250.000000	80.692	134.2341
254.000000	80.661	134.2516
258.000000	80.604	134.2749
262.000000	80.556	134.2123
265.000000	80.535	134.1566
269.000000	80.481	134.2726
272.000000	80.456	134.2394
276.000000	80.424	134.3268
280.000000	80.384	134.5435
285.000000	80.349	134.7330
290.000000	80.348	135.0959
295.000000	80.409	135.4214
300.000000	80.471	135.2619
304.000000	80.507	134.8722
307.000000	80.511	134.6244
311.000000	80.511	134.4346
315.000000	80.489	134.1683
320.000000	80.474	133.9131
325.000000	80.465	133.7740
330.000000	80.448	133.6717
335.000000	80.444	133.4669
340.000000	80.438	133.3613
345.000000	80.432	133.2291
350.000000	80.437	133.1721
355.000000	80.438	133.0143
360.000000	80.433	132.8142
365.000000	80.437	132.7501
370.000000	80.441	132.5861
375.000000	80.451	132.5516
382.000000	80.479	132.2876
387.000000	80.480	132.0980
395.000000	80.499	131.9062
400.000000	80.531	131.7576
406.000000	80.547	131.5477
412.000000	80.569	131.3568
418.000000	80.583	131.1475
425.000000	80.622	130.8566
431.000000	80.651	130.7385
437.000000	80.675	130.5533
444.000000	80.713	130.2443
450.000000	80.744	129.9986
455.000000	80.765	129.8855
462.000000	80.803	129.5819
468.000000	80.832	129.3118
475.000000	80.873	128.9974
482.000000	80.907	128.6697
487.000000	80.937	128.5490
494.000000	80.971	128.1581
500.000000	81.010	127.9644
508.000000	81.055	127.5639
515.000000	81.095	127.2236
522.000000	81.129	126.9459
530.000000	81.191	126.5215
538.000000	81.227	126.1661
545.000000	81.272	125.7845
552.000000	81.316	125.4776
560.000000	81.346	124.9772
570.000000	81.415	124.6266
580.000000	81.474	124.0634
590.000000	81.518	123.6160
600.000000	81.565	123.1384
608.000000	81.628	122.7317
615.000000	81.653	122.3322
622.000000	81.691	121.9977
630.000000	81.716	121.6307
640.000000	81.771	121.1198
650.000000	81.813	120.5827
660.000000	81.857	120.2316
670.000000	81.890	119.6569
680.000000	81.940	119.2260
690.000000	81.973	118.7091
700.000000	81.999	118.2871
710.000000	82.040	117.8316
720.000000	82.080	117.4497
730.000000	82.105	116.9986
740.000000	82.126	116.5865
750.000000	82.155	116.2052
762.000000	82.191	115.8261
775.000000	82.228	115.2460
788.000000	82.264	114.7647
800.000000	82.295	114.3401
812.000000	82.302	113.8766
825.000000	82.326	113.4190
838.000000	82.335	113.0853
850.000000	82.354	112.8586
862.000000	82.372	112.5721
875.000000	82.396	112.3259
885.000000	82.413	112.1867
900.000000	82.446	111.8392
912.000000	82.457	111.6684
925.000000	82.492	111.3141
938.000000	82.514	111.0558
950.000000	82.533	110.8160
962.000000	82.557	110.6035
975.000000	82.587	110.3321
988.000000	82.612	110.1189
1000.000000	82.629	110.1147
1015.000000	82.644	109.6216
1030.000000	82.659	109.3919
1044.000000	82.680	109.1965
1060.000000	82.711	108.8613
1075.000000	82.729	108.5948
1090.000000	82.739	108.4297
1106.000000	82.758	108.1278
1120.000000	82.767	107.9301
1138.000000	82.775	107.6911
1150.000000	82.783	107.5180
1172.000000	82.787	107.2065
1180.000000	82.798	107.1313
1206.000000	82.793	106.7507
1220.000000	82.787	106.6681
1241.000000	82.794	106.4775
1250.000000	82.779	106.3529
1265.000000	82.778	106.1930
1280.000000	82.772	106.0911
1315.000000	82.735	105.8958
1320.000000	82.736	105.9343
1340.000000	82.716	105.8089
1360.000000	82.701	105.7815
1380.000000	82.679	105.8580
1400.000000	82.664	105.8757
1430.000000	82.643	105.9628
1450.000000	82.630	105.9877
1475.000000	82.609	106.1114
1500.000000	82.580	106.3321
1525.000000	82.554	106.4427
1550.000000	82.549	106.7062
1575.000000	82.539	106.9486
1600.000000	82.531	107.1292
1625.000000	82.526	107.5166
1650.000000	82.520	107.7051
1675.000000	82.527	108.0910
1700.000000	82.508	108.3762
1725.000000	82.524	108.6315
1750.000000	82.547	108.8948
1775.000000	82.544	109.2986
1800.000000	82.565	109.5292
1825.000000	82.585	109.9022
1850.000000	82.602	110.2003
1875.000000	82.633	110.4961
1900.000000	82.653	110.7880
1925.000000	82.676	111.1471
1950.000000	82.715	111.3500
1975.000000	82.753	111.5841
2000.000000	82.795	111.9837
2030.000000	82.832	112.0321
2060.000000	82.874	112.2913
2090.000000	82.911	112.4608
2120.000000	82.980	112.7073
2140.000000	83.017	112.7979
2180.000000	83.093	112.9484
2200.000000	83.130	112.9840
2240.000000	83.206	113.0288
2270.000000	83.260	113.0717
2300.000000	83.331	112.9299
2330.000000	83.387	112.9693
2360.000000	83.457	112.8521
2400.000000	83.531	112.5994
2430.000000	83.589	112.3972
2470.000000	83.677	112.0161
2500.000000	83.737	111.6916
2540.000000	83.812	111.1675
2580.000000	83.883	110.5337
2620.000000	83.952	109.9094
2650.000000	83.994	109.3583
2690.000000	84.056	108.5655
2720.000000	84.091	107.9219
2760.000000	84.141	107.0016
2800.000000	84.170	106.0607
2850.000000	84.224	104.6186
2900.000000	84.263	103.0929
2950.000000	84.282	101.4859
3000.000000	84.303	99.6151
3040.000000	84.293	98.1446
3070.000000	84.269	97.0205
3110.000000	84.223	95.3921
3150.000000	84.182	93.7240
3200.000000	84.117	91.6201
3250.000000	83.997	89.3385
3300.000000	83.880	87.0806
3350.000000	83.705	85.0054
3400.000000	83.544	82.8113
3450.000000	83.353	80.8621
3500.000000	83.153	78.9269
3550.000000	82.969	77.3385
3600.000000	82.767	75.6628
3650.000000	82.598	74.0825
3700.000000	82.456	72.6037
3750.000000	82.339	71.1123
3820.000000	82.196	68.9880
3870.000000	82.108	67.4921
3950.000000	82.046	64.7432
4000.000000	81.979	63.1109
4060.000000	82.011	60.8707
4120.000000	82.013	58.7731
4180.000000	82.059	56.6635
4250.000000	82.193	54.3091
4310.000000	82.354	52.0283
4370.000000	82.550	49.7824
4440.000000	82.855	46.7963
4500.000000	83.145	44.0202
4550.000000	83.437	41.4875
4620.000000	83.882	37.4344
4680.000000	84.241	33.4978
4750.000000	84.635	28.3792
4820.000000	84.937	22.9402
4870.000000	85.113	18.9030
4940.000000	85.224	13.6452
5000.000000	85.276	9.5772
5080.000000	85.309	4.6158
5150.000000	85.327	0.9651
5220.000000	85.344	-2.2967
5300.000000	85.405	-5.6424
5380.000000	85.478	-8.6734
5450.000000	85.560	-11.3355
5520.000000	85.634	-13.8886
5600.000000	85.698	-16.6830
5700.000000	85.750	-20.0859
5800.000000	85.743	-23.2608
5900.000000	85.712	-25.9246
6000.000000	85.613	-28.0283
6080.000000	85.539	-29.3306
6150.000000	85.494	-30.2327
6220.000000	85.410	-30.8356
6300.000000	85.373	-31.3149
6400.000000	85.351	-31.3583
6500.000000	85.384	-31.4139
6600.000000	85.452	-31.2076
6700.000000	85.555	-30.8458
6800.000000	85.693	-30.6468
6900.000000	85.847	-30.4469
7000.000000	86.030	-30.4790
7100.000000	86.223	-30.6408
7200.000000	86.416	-30.7676
7300.000000	86.617	-31.2899
7400.000000	86.851	-31.9720
7500.000000	87.010	-33.0597
7620.000000	87.214	-34.7996
7750.000000	87.325	-37.0672
7880.000000	87.293	-39.8018
8000.000000	87.137	-42.0490
8120.000000	86.894	-43.8958
8250.000000	86.550	-45.3157
8380.000000	86.145	-46.0433
8500.000000	85.781	-46.3534
8620.000000	85.394	-45.8249
8750.000000	85.027	-44.8716
8850.000000	84.752	-43.9196
9000.000000	84.423	-41.9621
9120.000000	84.252	-40.4024
9250.000000	84.152	-39.1513
9380.000000	83.993	-38.4115
9500.000000	83.790	-37.9474
9620.000000	83.584	-37.1494
9750.000000	83.308	-36.1710
9880.000000	82.992	-35.2017
10000.000000	82.716	-33.7460
10150.000000	82.317	-31.6970
10300.000000	81.974	-29.0956
10440.000000	81.696	-26.3585
10600.000000	81.494	-22.8376
10750.000000	81.343	-19.9391
10900.000000	81.292	-17.0048
11060.000000	81.325	-14.1168
11200.000000	81.294	-12.3045
11380.000000	81.287	-10.1185
11500.000000	81.268	-9.2885
11720.000000	81.146	-7.5769
11800.000000	81.061	-7.1240
12060.000000	80.586	-5.2174
12200.000000	80.331	-3.7877
12410.000000	79.911	-0.4698
12500.000000	79.772	1.0279
12650.000000	79.545	3.9696
12800.000000	79.320	7.0214
13150.000000	79.007	14.2395
13200.000000	78.973	14.9275
13400.000000	78.984	19.5093
13600.000000	79.019	24.0141
13800.000000	79.258	27.9630
14000.000000	79.596	31.2990
14300.000000	80.406	34.3565
14500.000000	81.010	33.7381
14750.000000	81.650	29.5442
15000.000000	81.827	21.9463
15250.000000	81.128	13.6404
15500.000000	79.694	9.3090
15750.000000	78.211	9.3015
16000.000000	76.853	11.7954
16250.000000	75.826	16.9462
16500.000000	75.084	24.2833
16750.000000	74.791	32.2106
17000.000000	75.097	39.8339
17250.000000	75.791	46.1037
17500.000000	77.117	47.0382
17750.000000	78.196	42.2548
18000.000000	78.440	33.1126
18250.000000	77.924	25.0393
18500.000000	77.429	19.0354
18750.000000	76.741	14.1912
19000.000000	76.180	7.6814
19250.000000	75.180	-3.5361
19500.000000	73.232	-14.0418
19750.000000	70.585	-23.5454
